time,emg0,emg1,emg2,emg3,emg4,emg5,emg6,emg7,quat0,quat1,quat2,quat3,acc0,acc1,acc2,gyro0,gyro2,gyro2
135,120,188,39,30,32,35,28,40,6646,-2314,-13098,-6882,1716,1151,-644,57,-246,52
157,164,210,47,30,47,34,33,43,6628,-2313,-13116,-6867,1650,1117,-662,90,-142,-63
180,183,254,45,29,47,32,30,49,6614,-2292,-13131,-6857,1559,1071,-672,101,-52,-146
195,187,276,42,28,48,31,30,51,6610,-2267,-13138,-6857,1528,1046,-672,52,32,-155
217,185,320,42,27,46,32,31,57,6611,-2247,-13141,-6856,1535,1040,-668,33,52,-126
240,157,303,39,28,44,32,31,54,6613,-2236,-13145,-6850,1560,1048,-690,37,26,-77
255,108,291,31,26,35,27,28,62,6612,-2233,-13148,-6845,1563,1083,-693,16,6,-33
277,67,254,41,24,35,25,32,57,6609,-2237,-13152,-6840,1546,1080,-686,5,-27,-7
300,51,229,42,23,34,26,31,56,6604,-2242,-13156,-6835,1546,1086,-685,3,-37,-2
315,52,112,42,22,36,26,35,50,6601,-2235,-13160,-6833,1623,1104,-742,1,7,-76
337,49,97,40,22,47,26,35,50,6601,-2196,-13162,-6843,1720,1102,-758,9,103,-270
360,44,88,39,22,41,26,33,64,6607,-2117,-13161,-6863,1649,1079,-699,63,226,-452
375,43,86,27,19,42,32,31,86,6624,-2019,-13159,-6881,1423,1030,-654,122,344,-466
397,35,85,26,21,46,31,35,88,6649,-1932,-13152,-6894,1346,1052,-636,122,369,-351
420,39,94,29,19,43,31,32,95,6675,-1871,-13143,-6902,1376,1126,-596,100,294,-201
442,43,74,31,17,34,29,33,94,6699,-1837,-13139,-6898,1481,1196,-583,120,178,-66
457,49,82,33,18,33,35,39,77,6716,-1821,-13141,-6880,1578,1275,-624,150,87,31
480,50,76,33,23,31,29,38,49,6729,-1812,-13146,-6862,1591,1316,-661,133,55,62
502,52,72,36,23,24,28,35,45,6734,-1806,-13148,-6854,1560,1338,-656,81,30,54
517,74,63,35,28,33,29,36,36,6736,-1798,-13148,-6853,1553,1325,-648,42,28,27
540,89,58,49,32,38,32,41,37,6739,-1787,-13146,-6858,1554,1317,-615,30,32,-8
562,96,45,51,33,38,27,34,37,6742,-1770,-13146,-6860,1569,1277,-623,51,44,-50
577,93,45,51,30,38,29,36,42,6746,-1747,-13148,-6857,1575,1221,-636,79,57,-86
600,92,42,49,30,44,30,35,42,6754,-1720,-13152,-6849,1573,1192,-660,104,90,-105
622,74,46,48,26,48,31,33,34,6765,-1688,-13156,-6838,1559,1178,-691,114,127,-112
637,54,46,33,24,45,29,22,46,6779,-1657,-13158,-6828,1537,1180,-696,108,147,-94
660,30,44,29,24,47,32,28,53,6789,-1634,-13160,-6820,1522,1209,-702,82,120,-54
682,31,49,32,26,50,36,27,52,6793,-1622,-13162,-6815,1509,1229,-691,42,65,-11
697,31,49,30,29,48,38,32,53,6789,-1623,-13164,-6815,1501,1240,-690,-13,0,18
720,29,40,33,29,39,36,33,54,6780,-1632,-13163,-6823,1517,1251,-676,-67,-38,28
742,24,38,33,34,39,39,33,53,6770,-1641,-13160,-6836,1537,1228,-668,-96,-37,-3
757,25,37,30,32,36,35,32,47,6764,-1643,-13155,-6853,1538,1224,-623,-93,-17,-39
780,26,30,30,32,35,28,31,46,6759,-1638,-13149,-6869,1513,1215,-603,-69,2,-64
802,28,35,38,30,36,25,26,45,6759,-1629,-13143,-6883,1502,1200,-583,-45,26,-64
817,31,38,35,31,38,24,20,46,6762,-1622,-13137,-6893,1503,1193,-571,-26,29,-44
840,33,37,36,26,40,22,25,36,6765,-1618,-13133,-6898,1495,1189,-583,-10,25,-21
862,37,40,36,27,41,23,28,38,6771,-1615,-13131,-6898,1491,1167,-601,2,34,-5
877,43,40,40,26,41,25,30,38,6779,-1611,-13128,-6895,1487,1172,-594,23,45,4
900,42,44,33,34,44,25,32,40,6789,-1608,-13126,-6890,1507,1193,-621,26,57,20
922,39,40,32,34,43,27,33,46,6797,-1612,-13125,-6883,1513,1206,-651,11,43,57
937,40,42,30,33,42,35,31,47,6804,-1625,-13124,-6876,1529,1186,-645,-4,8,83
960,37,40,31,35,41,34,26,46,6805,-1641,-13125,-6868,1542,1182,-672,-25,-20,82
982,30,38,21,35,41,37,32,54,6803,-1658,-13126,-6865,1554,1178,-658,-35,-42,58
997,34,46,25,27,38,40,35,62,6798,-1669,-13128,-6863,1557,1186,-638,-25,-54,29
1027,36,49,29,35,44,40,39,64,6793,-1677,-13131,-6860,1592,1221,-644,-4,-56,20
1042,34,47,30,35,41,34,38,70,6787,-1688,-13137,-6852,1567,1189,-627,20,-75,38
1065,35,47,36,33,42,36,37,72,6778,-1708,-13142,-6846,1555,1195,-598,1,-118,74
1088,34,48,39,32,42,35,32,64,6769,-1729,-13146,-6843,1562,1212,-594,-21,-124,78
1102,28,30,42,31,44,35,28,55,6762,-1743,-13146,-6847,1563,1225,-611,-39,-77,40
1125,29,36,41,23,39,36,22,45,6761,-1747,-13142,-6854,1525,1196,-623,-45,-4,6
1148,29,35,42,28,41,37,33,33,6768,-1738,-13137,-6859,1472,1179,-639,-17,82,-17
1162,28,35,38,27,43,36,35,34,6783,-1722,-13132,-6858,1405,1147,-664,20,154,-10
1185,32,35,39,30,42,35,34,39,6805,-1706,-13126,-6852,1434,1146,-648,47,174,15
1208,33,37,34,31,37,35,33,43,6827,-1694,-13121,-6842,1516,1196,-638,71,141,31
1222,30,30,37,28,35,36,36,47,6842,-1688,-13121,-6830,1598,1253,-653,75,78,44
1245,30,35,39,23,31,34,27,70,6844,-1692,-13124,-6820,1606,1285,-667,48,-5,67
1268,32,35,39,23,26,38,23,72,6838,-1706,-13127,-6817,1604,1264,-646,-14,-72,66
1282,30,32,34,18,24,36,24,72,6825,-1719,-13130,-6822,1600,1245,-620,-40,-107,25
1305,37,32,38,21,26,34,27,70,6808,-1725,-13133,-6830,1577,1217,-603,-41,-104,-35
1328,37,39,36,20,26,31,25,70,6795,-1722,-13136,-6839,1578,1200,-600,-21,-73,-73
1342,40,39,34,22,30,28,26,50,6785,-1713,-13140,-6843,1547,1180,-588,19,-53,-87
1365,39,41,38,23,33,24,30,47,6779,-1702,-13144,-6843,1535,1169,-579,42,-35,-75
1388,38,43,38,24,35,24,29,44,6776,-1695,-13147,-6842,1537,1186,-610,31,-15,-47
1402,30,41,38,21,37,25,26,44,6774,-1690,-13149,-6841,1515,1184,-624,18,-2,-20
1425,33,37,35,24,36,26,29,44,6774,-1690,-13149,-6841,1505,1169,-610,-7,5,-2
1448,34,32,36,24,35,28,32,46,6774,-1690,-13149,-6841,1487,1168,-621,-11,-1,4
1462,30,28,30,23,33,27,30,45,6775,-1690,-13149,-6841,1517,1161,-610,-6,11,13
1485,29,27,39,25,32,26,32,56,6781,-1691,-13147,-6839,1550,1180,-632,7,25,11
1515,30,33,35,30,38,28,34,58,6788,-1687,-13146,-6835,1550,1187,-638,24,40,2
1522,33,30,39,30,39,27,31,54,6801,-1682,-13144,-6827,1550,1180,-624,52,64,17
1545,30,37,43,28,37,25,27,57,6815,-1671,-13145,-6814,1562,1189,-647,82,83,4
1568,29,36,45,32,39,24,27,55,6826,-1654,-13147,-6803,1563,1202,-658,98,84,-29
1582,31,38,37,32,38,27,27,44,6837,-1633,-13149,-6793,1566,1214,-660,97,96,-44
1605,34,35,42,30,39,29,25,42,6844,-1615,-13152,-6785,1572,1230,-680,80,79,-45
1628,30,36,39,33,45,29,24,47,6848,-1597,-13153,-6783,1563,1242,-674,49,71,-56
1642,31,38,37,35,50,32,25,43,6848,-1583,-13154,-6783,1520,1215,-678,22,49,-50
1665,31,40,39,40,50,33,28,48,6844,-1571,-13157,-6785,1493,1218,-669,14,25,-48
1688,29,38,40,40,50,34,28,53,6840,-1565,-13158,-6789,1488,1185,-639,-5,10,-34
1702,26,37,41,38,43,30,30,50,6840,-1565,-13158,-6789,1492,1168,-611,-4,9,-15
1724,27,40,42,36,37,30,30,46,6841,-1565,-13158,-6788,1516,1159,-617,7,5,4
1748,26,39,42,38,29,26,30,46,6849,-1564,-13155,-6786,1535,1170,-607,13,34,8
1762,32,38,39,31,27,30,28,48,6861,-1560,-13152,-6780,1528,1179,-626,30,64,24
1784,32,39,38,29,29,31,28,45,6874,-1556,-13149,-6774,1526,1198,-626,41,76,35
1808,35,46,34,30,27,30,25,45,6886,-1549,-13146,-6769,1533,1227,-639,37,81,27
1822,33,45,38,28,29,35,27,45,6893,-1541,-13145,-6765,1528,1235,-657,38,64,8
1845,33,43,35,27,28,36,33,45,6898,-1533,-13146,-6761,1534,1211,-654,33,49,-9
1868,30,49,35,32,28,34,32,39,6903,-1526,-13144,-6759,1561,1203,-642,16,48,-14
1890,30,50,34,35,27,41,39,47,6907,-1521,-13144,-6757,1544,1206,-684,9,51,-7
1905,29,44,35,37,29,47,41,48,6909,-1520,-13145,-6755,1541,1176,-674,-4,29,-2
1928,31,43,33,38,27,49,40,49,6908,-1520,-13145,-6754,1533,1175,-662,-16,2,-2
1951,32,40,41,41,31,50,36,43,6905,-1524,-13146,-6755,1544,1183,-658,-30,-14,2
1965,32,36,41,36,33,50,35,49,6897,-1530,-13146,-6761,1533,1203,-649,-49,-35,2
1988,33,38,46,35,35,43,28,37,6885,-1539,-13147,-6770,1507,1190,-629,-70,-64,-2
2010,29,35,45,31,37,35,24,44,6875,-1552,-13146,-6779,1508,1168,-604,-74,-76,10
2024,35,37,41,31,42,30,22,46,6867,-1564,-13146,-6785,1522,1170,-596,-56,-70,17
2048,36,35,32,26,38,29,23,52,6862,-1575,-13145,-6788,1552,1194,-608,-39,-52,27
2070,34,33,35,29,40,33,24,58,6861,-1583,-13144,-6791,1565,1224,-598,-27,-38,31
2085,34,27,28,30,42,33,21,64,6860,-1589,-13141,-6795,1556,1234,-603,-21,-22,23
2108,35,29,29,31,41,33,24,60,6857,-1593,-13140,-6800,1548,1235,-620,-30,-17,15
2130,31,28,29,30,38,34,27,63,6852,-1596,-13138,-6807,1532,1229,-626,-38,-20,2
2145,33,31,33,28,41,31,26,60,6846,-1598,-13137,-6815,1540,1209,-626,-44,-26,-19
2168,33,35,30,24,39,27,23,49,6840,-1599,-13136,-6823,1547,1194,-616,-43,-31,-33
2191,33,37,34,21,37,28,25,44,6834,-1599,-13135,-6830,1545,1196,-605,-34,-30,-39
2205,31,39,40,23,37,28,24,45,6830,-1598,-13134,-6836,1539,1196,-606,-24,-17,-30
2228,29,36,44,24,35,25,22,39,6826,-1595,-13135,-6840,1531,1202,-613,-10,-16,-31
2250,29,36,45,24,33,28,21,41,6822,-1594,-13135,-6843,1529,1197,-618,-12,-15,-26
2265,30,33,45,24,30,28,24,53,6816,-1595,-13137,-6846,1513,1195,-614,-16,-35,-16
2288,32,33,44,25,28,31,21,52,6807,-1598,-13140,-6849,1508,1191,-628,-23,-46,-15
2310,33,31,43,23,24,36,20,50,6799,-1603,-13143,-6850,1512,1183,-623,-15,-54,-4
2325,33,33,43,25,40,36,24,50,6794,-1608,-13145,-6850,1527,1186,-604,-2,-47,4
2348,33,36,39,26,41,35,24,47,6791,-1612,-13147,-6848,1533,1198,-617,2,-39,8
2370,35,34,42,27,48,36,24,37,6790,-1616,-13148,-6845,1537,1203,-620,11,-22,18
2385,32,32,44,28,51,33,25,41,6793,-1620,-13150,-6839,1533,1196,-635,16,-4,35
2408,33,31,40,30,52,31,27,45,6795,-1622,-13150,-6835,1541,1221,-631,22,0,29
2430,34,33,39,27,42,32,24,47,6795,-1624,-13151,-6833,1539,1220,-631,8,-9,21
2445,31,26,38,27,41,33,23,47,6792,-1629,-13153,-6832,1550,1212,-638,-5,-30,9
2467,29,26,34,26,32,31,22,44,6787,-1631,-13154,-6834,1546,1216,-627,-9,-35,-2
2490,29,27,36,30,30,35,26,39,6782,-1634,-13156,-6835,1545,1211,-639,-10,-32,-2
2505,34,27,36,28,29,33,26,33,6779,-1636,-13156,-6836,1531,1213,-630,-8,-24,1
2527,34,28,38,28,30,33,24,29,6775,-1639,-13158,-6837,1538,1221,-641,-12,-27,6
2550,35,31,43,28,29,31,25,26,6769,-1641,-13159,-6840,1521,1227,-639,-16,-29,-2
2565,37,33,42,30,31,31,26,35,6762,-1641,-13160,-6845,1518,1220,-612,-14,-37,-17
2587,36,32,39,25,36,28,23,36,6756,-1641,-13160,-6850,1512,1199,-608,-16,-33,-21
2610,30,34,40,23,36,25,24,39,6757,-1641,-13160,-6850,1532,1181,-620,-16,-8,-16
2625,29,32,39,22,33,24,25,41,6763,-1641,-13157,-6849,1542,1172,-616,0,22,-4
2647,31,31,43,23,33,27,27,43,6770,-1637,-13156,-6845,1531,1181,-630,27,39,-1
2670,27,29,50,25,32,27,25,38,6776,-1633,-13157,-6838,1535,1187,-652,36,40,3
2685,27,30,50,24,22,33,31,44,6779,-1628,-13159,-6832,1534,1203,-670,35,27,-3
2707,27,30,50,25,22,35,29,41,6777,-1626,-13164,-6826,1527,1199,-688,23,4,-5
2730,25,30,47,28,24,35,29,40,6773,-1626,-13168,-6822,1528,1207,-674,12,-17,-1
2745,28,28,40,26,25,31,28,39,6768,-1630,-13171,-6819,1522,1194,-661,5,-29,13
2767,29,28,32,23,24,37,29,39,6764,-1636,-13174,-6816,1529,1201,-652,-2,-37,22
2790,34,32,35,23,28,29,23,33,6759,-1642,-13177,-6814,1503,1192,-643,0,-42,26
2813,36,36,43,23,31,28,25,35,6756,-1651,-13180,-6811,1505,1188,-632,-1,-44,38
2827,37,34,43,22,28,28,23,38,6756,-1658,-13181,-6807,1524,1182,-614,11,-31,38
2851,32,39,43,23,30,32,23,45,6762,-1661,-13180,-6800,1545,1184,-615,30,2,34
2873,32,39,46,24,36,32,29,45,6772,-1662,-13179,-6794,1555,1188,-606,41,24,33
2887,28,38,44,28,35,34,31,43,6786,-1659,-13176,-6785,1567,1194,-629,53,56,35
2910,27,31,36,31,37,35,27,42,6800,-1655,-13174,-6776,1551,1202,-641,56,71,35
2933,28,32,37,29,40,35,29,38,6816,-1650,-13170,-6769,1543,1196,-639,44,85,33
2947,30,29,39,32,44,39,36,30,6831,-1649,-13165,-6764,1530,1187,-631,20,81,52
2978,33,30,33,33,61,52,35,31,6854,-1654,-13155,-6759,1558,1177,-621,5,101,82
2993,36,29,31,32,65,51,36,31,6885,-1659,-13141,-6754,1581,1154,-624,-7,151,100
3008,36,28,29,33,72,51,37,33,6918,-1663,-13127,-6747,1571,1159,-619,6,161,104
3031,35,27,30,48,103,54,38,34,6952,-1667,-13114,-6735,1567,1151,-620,31,171,122
3053,36,28,30,64,116,53,35,32,6996,-1673,-13099,-6717,1564,1147,-627,53,210,175
3067,35,29,33,98,121,65,43,39,7043,-1682,-13083,-6697,1555,1162,-606,58,220,212
3091,33,29,39,131,137,66,43,52,7098,-1695,-13063,-6674,1563,1148,-603,53,259,258
3113,37,32,44,146,150,69,45,50,7166,-1714,-13038,-6647,1575,1118,-609,50,315,322
3127,39,31,44,146,137,73,47,50,7229,-1734,-13015,-6618,1579,1147,-608,61,286,335
3151,38,27,43,147,135,70,46,51,7275,-1755,-13003,-6586,1592,1133,-607,85,185,304
3173,37,36,59,155,150,59,43,55,7311,-1774,-12995,-6556,1616,1125,-582,93,122,255
3187,35,37,57,174,178,69,48,43,7344,-1782,-12986,-6535,1637,1123,-588,73,143,178
3210,37,40,66,192,209,83,54,49,7364,-1788,-12980,-6522,1623,1107,-595,37,95,119
3233,34,48,83,216,271,103,64,56,7384,-1800,-12974,-6509,1684,1114,-577,27,66,135
3247,31,60,95,259,311,132,77,58,7416,-1801,-12957,-6504,1680,1101,-537,10,161,96
3270,37,68,97,252,313,147,81,51,7450,-1794,-12941,-6501,1674,1084,-532,27,187,56
3293,42,69,96,239,325,147,81,52,7479,-1783,-12930,-6492,1654,1080,-586,48,194,46
3307,41,72,104,258,390,149,80,50,7504,-1780,-12920,-6484,1640,1078,-560,35,142,73
3331,42,73,104,242,360,155,81,44,7527,-1782,-12910,-6477,1640,1051,-558,11,132,81
3353,52,68,99,209,347,142,69,42,7552,-1784,-12901,-6465,1669,1058,-583,29,138,95
3367,52,70,114,242,478,152,89,71,7581,-1783,-12891,-6451,1684,1039,-549,51,150,85
3391,58,89,143,251,509,204,118,104,7608,-1785,-12886,-6429,1660,984,-589,69,138,99
3421,56,86,140,251,494,205,118,110,7631,-1798,-12888,-6393,1626,977,-597,118,79,183
3427,67,88,143,279,646,212,121,116,7654,-1819,-12891,-6355,1637,1023,-577,116,47,246
3451,65,94,146,298,695,237,141,122,7664,-1852,-12892,-6331,1616,1053,-553,33,-31,257
3473,65,88,133,317,738,234,129,109,7655,-1881,-12896,-6325,1655,1105,-558,-42,-103,166
3487,101,90,138,375,784,221,123,83,7637,-1905,-12898,-6336,1688,1101,-520,-98,-140,74
3511,124,99,161,368,803,264,147,81,7616,-1922,-12904,-6343,1696,1057,-491,-55,-171,18
3533,133,116,190,407,779,304,159,87,7606,-1919,-12913,-6337,1751,1037,-501,63,-100,-41
3547,136,124,364,457,798,316,154,116,7605,-1893,-12919,-6335,1720,1067,-498,106,4,-106
3571,147,129,412,476,770,331,165,128,7609,-1862,-12920,-6337,1698,1070,-528,91,70,-126
3593,142,137,425,489,729,358,177,139,7602,-1844,-12929,-6331,1664,1008,-603,70,2,-89
3607,140,147,444,566,832,395,194,154,7600,-1842,-12931,-6331,1644,980,-568,-4,1,-30
3630,133,144,443,559,880,397,199,156,7596,-1849,-12939,-6318,1620,1009,-590,38,-38,53
3653,136,152,339,535,960,404,205,139,7594,-1863,-12940,-6314,1683,1022,-569,-19,-41,63
3667,132,172,301,539,930,435,221,149,7594,-1873,-12936,-6319,1726,1054,-531,-46,-28,29
3691,127,181,300,512,973,463,235,185,7595,-1875,-12935,-6319,1702,1055,-555,-2,-5,19
3713,114,175,275,466,889,420,218,178,7600,-1873,-12934,-6317,1698,1050,-542,22,17,10
3736,114,199,295,478,955,464,237,179,7604,-1869,-12935,-6311,1716,1053,-572,40,19,6
3750,118,204,293,531,864,480,248,182,7595,-1871,-12943,-6304,1640,1015,-575,35,-59,8
3773,115,184,268,504,880,451,231,167,7594,-1872,-12947,-6296,1694,1044,-584,35,-11,23
3796,112,187,284,552,870,467,237,136,7589,-1877,-12948,-6299,1686,1041,-569,-28,-33,8
3810,118,198,301,527,901,524,260,150,7583,-1883,-12946,-6309,1673,1022,-548,-67,-37,-12
3833,123,178,292,541,880,490,250,162,7582,-1887,-12943,-6315,1697,1014,-553,-43,-10,-9
3856,120,177,300,586,1067,496,258,191,7578,-1892,-12942,-6320,1666,1028,-539,-32,-31,4
3871,118,185,308,626,1043,491,256,192,7582,-1894,-12939,-6322,1689,1039,-534,-9,9,16
3893,110,167,280,648,1167,446,244,192,7584,-1895,-12934,-6329,1694,1046,-545,-34,18,-2
3916,105,168,276,644,1251,401,229,180,7583,-1903,-12929,-6338,1688,997,-566,-83,-1,-5
3931,99,159,260,687,1194,375,216,166,7574,-1913,-12933,-6338,1662,970,-589,-40,-59,0
3953,106,161,258,680,999,388,213,135,7569,-1923,-12941,-6325,1627,953,-565,35,-65,43
3976,109,169,282,643,1055,431,233,156,7576,-1933,-12939,-6317,1692,1027,-536,18,-7,82
3990,106,161,271,659,950,420,220,143,7583,-1939,-12934,-6317,1710,1056,-554,-11,21,49
4013,118,158,268,692,1050,473,226,148,7580,-1941,-12931,-6325,1680,1082,-548,-41,-7,13
4035,116,174,271,615,1127,507,238,152,7580,-1939,-12927,-6334,1670,1044,-547,-34,14,-18
4049,122,180,273,619,1167,525,235,145,7580,-1934,-12924,-6341,1708,1043,-552,-24,16,-37
4073,128,172,252,679,1154,507,222,121,7575,-1929,-12924,-6350,1664,1022,-545,-28,-9,-56
4096,133,186,275,660,1182,522,222,121,7577,-1923,-12919,-6360,1707,1033,-545,-35,34,-47
4110,138,217,314,637,1110,580,263,131,7587,-1929,-12909,-6365,1736,969,-570,-68,58,-8
4133,146,219,318,726,1067,587,264,130,7585,-1933,-12913,-6360,1630,981,-578,8,-12,18
4155,132,201,294,699,1134,543,243,129,7578,-1935,-12923,-6346,1613,1022,-553,74,-61,40
4169,127,216,311,733,1143,558,253,139,7574,-1940,-12923,-6349,1646,1055,-525,-16,-40,31
4193,122,214,302,721,1195,560,251,138,7573,-1946,-12916,-6362,1734,1101,-543,-77,-4,7
4215,120,192,313,815,1172,523,218,125,7572,-1943,-12914,-6370,1716,1047,-546,-29,5,-32
4230,123,204,344,771,1350,623,251,131,7571,-1936,-12913,-6374,1655,1016,-516,8,0,-47
4260,136,201,346,719,1342,615,254,125,7572,-1924,-12912,-6379,1649,1032,-542,6,38,-52
4275,137,192,350,638,1350,613,256,127,7571,-1917,-12912,-6383,1681,1059,-572,-1,19,-35
4290,143,198,359,660,1276,654,280,133,7566,-1907,-12913,-6388,1670,1068,-556,8,4,-51
4313,156,242,403,651,1308,742,332,163,7564,-1900,-12911,-6398,1665,1022,-552,-35,18,-65
4335,147,226,368,648,1060,639,310,164,7569,-1904,-12906,-6401,1725,971,-564,-48,27,-24
4350,134,224,365,642,1019,631,306,172,7578,-1904,-12908,-6387,1714,959,-574,54,33,12
4373,132,220,353,676,1151,635,301,164,7574,-1898,-12925,-6357,1617,1020,-585,172,-49,37
4395,134,224,354,674,1267,615,293,161,7556,-1900,-12943,-6342,1576,1041,-589,83,-114,29
4410,96,153,231,574,1138,400,198,117,7543,-1907,-12948,-6345,1633,1072,-552,-21,-85,23
4433,91,136,213,539,1153,381,169,97,7538,-1918,-12941,-6362,1693,1061,-503,-99,-46,4
4455,93,142,220,596,1147,396,174,86,7535,-1920,-12937,-6372,1725,1049,-525,-51,-26,-30
4470,84,129,192,534,940,337,151,78,7530,-1913,-12940,-6376,1691,1030,-558,3,-15,-64
4493,67,93,137,415,669,232,104,60,7519,-1897,-12945,-6383,1673,1081,-570,21,-25,-100
4515,65,85,119,382,635,226,97,62,7492,-1883,-12954,-6400,1645,1098,-590,-38,-89,-144
4530,71,85,126,356,519,204,94,64,7454,-1873,-12964,-6427,1613,1076,-597,-103,-135,-182
4553,62,64,104,233,361,166,77,56,7421,-1879,-12969,-6453,1618,1032,-544,-140,-164,-119
4575,59,60,97,197,312,160,78,54,7413,-1895,-12953,-6491,1697,1016,-477,-231,-50,-69
4590,55,52,92,180,279,144,74,56,7431,-1912,-12918,-6534,1773,1050,-469,-277,98,-16
4613,52,37,74,134,184,124,64,48,7456,-1913,-12889,-6562,1755,1049,-510,-170,175,-30
4635,36,34,54,88,155,98,53,39,7477,-1893,-12873,-6576,1678,1055,-545,-35,186,-79
4650,35,37,41,65,108,81,43,38,7481,-1863,-12873,-6581,1625,1077,-618,31,128,-129
4673,30,38,51,69,96,64,36,41,7474,-1840,-12878,-6584,1569,1059,-585,32,46,-112
4695,28,40,53,70,89,55,33,36,7474,-1827,-12880,-6586,1630,1059,-584,11,51,-70
4718,25,42,56,66,69,50,34,36,7470,-1821,-12883,-6585,1664,1078,-589,5,12,-43
4733,24,42,53,68,59,51,34,34,7452,-1809,-12897,-6581,1654,1107,-589,55,-72,-86
4755,27,49,56,69,57,44,30,31,7422,-1794,-12919,-6576,1646,1094,-566,85,-153,-136
4778,26,48,50,50,48,42,27,29,7384,-1780,-12943,-6575,1639,1090,-564,70,-191,-164
4792,28,48,50,42,45,43,28,36,7345,-1774,-12969,-6570,1649,1075,-587,59,-224,-132
4815,29,50,49,41,46,44,24,38,7298,-1774,-13000,-6561,1616,1075,-574,77,-292,-111
4838,26,42,49,35,44,43,25,38,7256,-1771,-13024,-6560,1616,1087,-533,56,-267,-131
4852,24,41,53,26,38,35,25,39,7229,-1758,-13037,-6569,1630,1102,-563,12,-134,-156
4875,27,46,50,26,42,32,24,37,7210,-1742,-13045,-6576,1610,1100,-585,15,-67,-143
4898,29,47,46,23,41,31,25,32,7199,-1722,-13050,-6584,1613,1135,-581,23,-21,-133
4913,30,49,48,24,48,34,26,29,7188,-1701,-13055,-6591,1611,1145,-602,26,-8,-136
4935,32,55,50,25,51,32,27,30,7179,-1677,-13059,-6600,1614,1145,-585,26,0,-147
4958,32,55,49,24,55,31,26,32,7173,-1652,-13061,-6609,1606,1154,-594,24,27,-144
4973,32,58,49,23,53,33,29,33,7168,-1628,-13062,-6619,1606,1144,-590,20,31,-148
4995,31,58,50,25,55,34,27,28,7166,-1603,-13061,-6629,1604,1139,-597,11,51,-145
5018,31,54,46,26,53,33,27,28,7165,-1581,-13060,-6638,1589,1138,-590,10,54,-127
5033,30,55,47,30,50,35,24,27,7166,-1560,-13058,-6645,1582,1138,-595,12,60,-114
5055,28,49,37,30,44,41,26,22,7168,-1541,-13056,-6650,1591,1138,-606,13,68,-103
5078,29,46,41,32,40,38,23,24,7172,-1524,-13053,-6657,1589,1149,-602,1,69,-89
5093,26,50,39,32,42,36,24,23,7171,-1508,-13052,-6663,1570,1158,-623,-8,57,-82
5115,26,56,37,31,39,35,24,26,7172,-1495,-13050,-6669,1569,1162,-601,-3,48,-70
5139,26,53,37,26,43,36,25,34,7172,-1483,-13048,-6676,1568,1169,-594,-7,40,-66
5153,27,55,38,27,42,34,24,39,7169,-1470,-13047,-6683,1558,1168,-606,-14,37,-73
5175,26,52,35,22,43,36,24,38,7167,-1460,-13045,-6692,1563,1170,-579,-23,23,-73
5198,26,46,35,23,37,36,22,38,7165,-1450,-13043,-6700,1573,1160,-574,-19,22,-69
5212,26,38,40,23,39,34,22,40,7165,-1441,-13040,-6708,1581,1162,-576,-18,28,-67
5235,27,37,35,23,34,31,22,48,7168,-1432,-13036,-6715,1602,1189,-579,-15,46,-56
5258,29,43,36,23,35,26,20,46,7170,-1422,-13032,-6721,1590,1199,-585,-15,42,-48
5272,28,43,37,22,34,23,20,48,7171,-1414,-13028,-6729,1572,1196,-578,-26,38,-48
5295,28,43,35,23,36,22,22,47,7172,-1407,-13023,-6740,1568,1193,-568,-40,36,-52
5318,28,43,34,25,31,24,22,44,7171,-1399,-13018,-6752,1564,1195,-584,-49,39,-58
5332,29,49,35,25,37,23,20,29,7172,-1390,-13013,-6764,1567,1176,-576,-50,45,-71
5355,26,44,39,26,43,24,22,30,7173,-1380,-13008,-6773,1566,1178,-578,-31,54,-70
5378,30,45,40,29,45,25,21,27,7174,-1368,-13006,-6780,1551,1188,-589,-21,51,-66
5392,31,47,40,27,43,25,21,29,7176,-1358,-13001,-6789,1568,1206,-559,-23,49,-58
5415,30,50,40,23,44,24,21,30,7176,-1348,-12997,-6797,1586,1219,-564,-19,35,-59
5438,33,43,43,24,38,27,22,31,7172,-1339,-12996,-6806,1555,1213,-579,-30,22,-66
5452,32,40,38,23,32,28,19,30,7167,-1329,-12994,-6818,1539,1216,-557,-34,10,-74
5475,29,38,32,20,27,25,24,30,7159,-1320,-12993,-6830,1549,1207,-562,-41,0,-85
5498,28,35,35,20,29,23,22,35,7150,-1315,-12991,-6844,1528,1189,-536,-55,-19,-81
5512,29,31,31,21,26,23,23,34,7138,-1311,-12991,-6856,1529,1198,-554,-54,-40,-75
5535,26,30,24,20,27,22,22,34,7125,-1311,-12992,-6868,1540,1212,-546,-57,-55,-59
5558,25,29,26,20,24,22,24,33,7112,-1315,-12993,-6879,1527,1207,-545,-61,-64,-39
5572,24,30,30,20,27,25,22,33,7099,-1322,-12994,-6889,1533,1211,-551,-66,-73,-26
5595,26,28,25,20,27,28,23,30,7087,-1331,-12993,-6901,1541,1218,-545,-75,-71,-17
5618,24,30,27,21,31,29,22,30,7078,-1342,-12991,-6912,1529,1208,-528,-79,-67,-2
8,Repeat 1,,,,,,,,,,,,,,,,,
31,22,35,27,20,31,26,22,33,7064,-1361,-12986,-6932,1530,1216,-551,-72,-36,2
53,24,31,36,18,30,23,20,35,7060,-1367,-12984,-6940,1534,1229,-538,-51,-29,1
76,21,35,47,20,32,23,23,32,7056,-1368,-12983,-6945,1538,1232,-562,-36,-10,-13
91,24,46,54,19,32,22,24,31,7050,-1366,-12982,-6953,1539,1257,-568,-37,-8,-29
113,25,50,66,23,32,30,27,31,7045,-1364,-12981,-6962,1525,1249,-563,-37,-6,-33
136,25,48,66,23,32,32,26,28,7039,-1361,-12980,-6969,1501,1240,-554,-32,-7,-30
151,24,54,62,24,33,35,28,27,7034,-1358,-12978,-6979,1500,1228,-518,-36,-17,-37
173,25,53,60,24,31,35,25,29,7029,-1357,-12976,-6989,1523,1233,-523,-37,-18,-39
196,24,48,59,26,38,38,28,28,7027,-1354,-12973,-6995,1531,1228,-526,-23,2,-35
211,24,46,56,27,50,38,33,30,7030,-1347,-12969,-7001,1538,1238,-511,-6,22,-36
233,23,46,59,27,48,38,33,28,7033,-1338,-12967,-7003,1522,1239,-531,11,37,-37
256,25,47,61,29,50,39,32,28,7036,-1328,-12965,-7005,1504,1234,-538,11,45,-35
271,28,45,57,30,54,41,32,32,7039,-1319,-12963,-7009,1503,1245,-533,5,41,-30
301,30,41,55,30,48,40,29,31,7042,-1313,-12961,-7010,1508,1231,-522,11,25,-21
316,30,43,75,28,37,36,20,30,7043,-1308,-12960,-7012,1515,1241,-535,5,23,-18
331,30,53,76,28,44,38,23,27,7044,-1304,-12959,-7014,1508,1236,-543,-5,22,-13
353,28,49,73,27,45,36,23,30,7049,-1302,-12957,-7014,1499,1218,-522,3,25,1
376,23,49,72,26,40,34,22,26,7053,-1298,-12956,-7011,1512,1232,-521,29,27,-2
391,21,48,71,25,39,32,23,27,7059,-1291,-12956,-7007,1537,1245,-539,32,39,-6
413,21,45,49,23,38,32,23,32,7065,-1286,-12955,-7003,1545,1249,-548,29,43,-3
436,25,43,51,22,32,29,22,34,7071,-1280,-12954,-7000,1543,1252,-552,25,41,-2
451,28,61,56,21,29,30,23,32,7073,-1276,-12954,-6999,1526,1257,-568,8,34,-3
473,29,64,57,22,30,29,24,31,7074,-1271,-12953,-7000,1525,1260,-548,2,23,-12
496,28,63,62,20,30,30,25,31,7071,-1268,-12954,-7002,1516,1237,-552,-7,3,-27
510,29,61,60,22,35,31,24,26,7068,-1266,-12955,-7004,1521,1222,-548,-12,-7,-27
533,26,57,56,22,34,31,22,24,7068,-1266,-12955,-7004,1512,1221,-531,-7,-8,-14
556,25,47,59,22,33,29,22,30,7068,-1266,-12955,-7004,1521,1222,-529,-2,-7,0
570,24,44,58,23,34,30,22,30,7068,-1266,-12955,-7004,1545,1247,-536,3,8,3
593,24,44,50,24,35,32,20,28,7068,-1266,-12955,-7004,1522,1249,-521,5,8,9
616,25,44,47,23,30,33,21,28,7068,-1266,-12955,-7004,1510,1240,-535,1,7,6
630,27,51,46,24,32,36,23,29,7068,-1266,-12955,-7004,1508,1245,-542,-11,4,1
653,26,39,37,23,34,36,20,24,7068,-1266,-12955,-7004,1520,1242,-527,1,0,-1
676,27,42,50,24,33,36,21,34,7068,-1266,-12955,-7004,1529,1234,-544,-2,-3,0
690,29,61,55,22,33,36,22,35,7068,-1266,-12955,-7004,1530,1247,-542,-4,-3,5
713,26,64,52,24,37,33,26,39,7068,-1266,-12955,-7004,1519,1241,-545,0,-3,14
736,24,58,51,23,37,31,26,39,7067,-1266,-12956,-7004,1517,1242,-560,-4,-2,13
750,28,59,52,25,37,31,29,40,7067,-1266,-12956,-7004,1514,1241,-538,-12,-12,11
774,28,59,49,27,38,32,27,33,7065,-1271,-12957,-7003,1525,1232,-526,-9,-29,15
796,29,37,43,30,41,32,27,33,7063,-1277,-12956,-7004,1528,1244,-523,-13,-25,18
810,32,33,42,29,39,32,26,30,7064,-1281,-12955,-7006,1545,1248,-509,-13,-19,12
833,32,34,49,31,36,31,25,30,7064,-1281,-12955,-7006,1533,1245,-519,-3,-3,7
856,29,42,53,29,38,30,25,28,7064,-1281,-12954,-7007,1523,1235,-517,6,10,-2
870,29,41,46,27,37,31,26,31,7064,-1281,-12954,-7007,1517,1230,-535,8,15,0
893,27,40,47,28,32,29,26,28,7064,-1281,-12955,-7007,1510,1234,-536,14,8,5
916,23,41,49,28,31,29,22,30,7066,-1282,-12956,-7002,1520,1227,-542,16,5,13
938,22,39,49,29,32,27,21,31,7069,-1284,-12956,-6998,1520,1223,-537,11,6,22
953,21,28,46,36,30,37,19,28,7072,-1288,-12957,-6993,1527,1220,-547,11,5,34
976,18,26,48,42,35,39,20,29,7083,-1294,-12954,-6986,1525,1206,-539,8,40,58
998,19,31,50,49,44,45,23,29,7106,-1303,-12946,-6976,1544,1208,-532,8,90,112
1013,22,29,53,50,49,46,27,28,7130,-1308,-12938,-6964,1540,1242,-540,33,111,119
1036,25,31,49,56,51,46,26,26,7150,-1312,-12933,-6953,1522,1237,-548,34,98,104
1058,23,31,47,58,58,38,25,25,7165,-1316,-12928,-6946,1536,1231,-539,10,76,82
1073,31,35,45,60,65,41,27,22,7179,-1323,-12923,-6940,1554,1209,-526,2,51,77
1096,33,36,46,67,77,48,29,29,7202,-1330,-12914,-6931,1571,1211,-513,11,95,102
1118,31,40,49,76,82,50,26,30,7230,-1342,-12902,-6921,1561,1196,-519,1,121,141
1133,29,48,48,73,94,53,27,31,7268,-1352,-12888,-6907,1560,1198,-502,23,169,175
1156,30,47,52,90,107,56,28,32,7306,-1363,-12875,-6889,1529,1177,-512,33,173,195
1178,27,44,58,130,149,70,35,33,7337,-1372,-12864,-6873,1560,1197,-499,42,133,168
1193,28,54,65,159,251,75,43,39,7372,-1377,-12854,-6855,1595,1202,-492,61,152,154
1216,31,58,79,177,261,95,57,44,7418,-1382,-12839,-6832,1589,1180,-472,84,210,198
1238,32,56,94,219,400,117,69,47,7467,-1391,-12827,-6799,1648,1211,-471,130,191,244
1252,31,57,97,250,428,128,78,47,7519,-1381,-12812,-6772,1637,1221,-441,154,250,172
1276,38,61,98,241,439,136,79,50,7559,-1363,-12798,-6758,1589,1188,-504,87,267,73
1298,43,67,124,234,459,194,101,52,7592,-1350,-12782,-6753,1571,1163,-475,35,214,55
1312,44,77,130,248,477,202,103,55,7619,-1339,-12769,-6749,1547,1147,-479,24,191,51
1336,47,82,127,235,368,194,99,56,7649,-1330,-12755,-6745,1587,1123,-490,10,202,42
1358,50,86,132,217,352,197,98,58,7672,-1324,-12743,-6742,1599,1134,-485,-4,163,40
1373,51,95,156,280,374,205,107,68,7691,-1322,-12734,-6738,1606,1136,-451,10,108,47
1396,46,88,138,318,459,158,88,61,7708,-1318,-12730,-6727,1653,1159,-478,48,94,50
1418,56,84,145,348,522,181,101,68,7722,-1310,-12724,-6723,1629,1146,-435,39,90,12
1432,60,85,154,359,558,193,107,71,7724,-1302,-12725,-6720,1558,1136,-445,34,29,-9
1456,61,90,164,369,604,209,121,77,7718,-1301,-12734,-6711,1557,1142,-467,55,-36,23
1478,65,93,167,359,764,218,125,74,7714,-1302,-12740,-6703,1617,1186,-450,49,-40,35
1492,78,112,190,385,712,256,145,86,7711,-1307,-12742,-6702,1626,1171,-456,-4,-31,23
1516,75,112,192,422,830,244,138,82,7709,-1309,-12746,-6697,1625,1120,-437,28,-32,11
1538,78,119,199,432,871,266,150,88,7707,-1313,-12752,-6687,1631,1140,-467,41,-35,35
1552,88,129,208,453,927,283,152,100,7705,-1313,-12758,-6676,1646,1154,-474,59,-26,17
1576,91,141,221,457,892,321,165,113,7707,-1310,-12761,-6670,1658,1172,-462,47,-3,12
1599,88,141,235,548,894,330,167,115,7697,-1309,-12769,-6668,1612,1155,-480,21,-51,-14
1612,95,155,254,525,891,386,195,124,7694,-1314,-12769,-6669,1615,1100,-480,-30,-18,-2
1636,91,150,251,534,953,385,191,126,7690,-1324,-12770,-6670,1608,1100,-485,-38,-34,17
1658,85,145,246,544,1077,373,187,117,7689,-1333,-12769,-6672,1619,1122,-454,-38,-26,29
1672,75,126,222,616,1052,331,172,103,7691,-1341,-12765,-6674,1644,1147,-456,-30,0,35
1696,74,119,195,622,1060,301,163,96,7691,-1352,-12766,-6671,1638,1119,-452,-13,-41,43
1718,65,98,155,683,990,230,129,78,7693,-1364,-12765,-6667,1629,1108,-431,-10,-29,58
1732,72,110,166,737,1092,246,141,82,7704,-1368,-12761,-6663,1705,1157,-449,10,32,45
1756,75,121,181,820,980,277,161,94,7714,-1373,-12752,-6667,1646,1123,-441,-41,45,32
1778,82,131,186,786,1033,320,179,105,7722,-1375,-12744,-6672,1612,1122,-446,-41,51,15
1792,80,130,200,733,1167,331,182,107,7735,-1378,-12734,-6676,1639,1100,-450,-46,75,25
1816,89,149,240,768,1336,388,207,126,7740,-1385,-12730,-6677,1618,1098,-450,-34,18,33
1838,89,150,253,741,1304,390,205,128,7741,-1393,-12730,-6672,1631,1075,-471,-11,-8,33
1852,108,175,271,759,1281,408,227,156,7746,-1401,-12731,-6664,1638,1113,-458,18,1,63
1876,111,185,306,822,1212,410,230,162,7747,-1414,-12731,-6660,1628,1140,-448,-12,-30,82
1898,109,186,307,820,1132,419,227,164,7752,-1425,-12729,-6656,1670,1143,-461,-17,1,72
1921,102,172,276,783,1017,379,226,168,7754,-1439,-12725,-6658,1656,1095,-461,-56,-15,45
1936,96,160,251,780,891,346,214,162,7750,-1450,-12728,-6656,1679,1093,-495,-32,-37,25
1958,88,141,238,688,906,379,204,156,7747,-1456,-12736,-6642,1663,1072,-495,45,-40,30
1981,95,150,219,625,994,453,228,167,7741,-1468,-12742,-6634,1685,1106,-476,10,-71,40
1996,94,147,207,683,942,451,229,164,7740,-1468,-12746,-6627,1638,1137,-449,43,-25,28
2018,104,166,252,694,986,521,245,165,7738,-1474,-12745,-6631,1657,1137,-457,-28,-20,21
2040,114,178,263,740,1068,543,255,167,7740,-1479,-12738,-6641,1663,1122,-430,-68,8,3
2055,104,167,255,786,1037,495,237,145,7742,-1484,-12734,-6644,1626,1060,-445,-32,3,2
2078,94,152,252,841,1073,428,213,126,7757,-1482,-12721,-6653,1710,1112,-442,-56,98,-6
2101,122,200,311,889,1269,593,297,173,7770,-1473,-12709,-6662,1669,1097,-487,-49,125,-46
2116,123,203,320,854,1228,597,291,169,7774,-1466,-12707,-6663,1667,1056,-499,-13,59,-50
2138,115,194,319,834,1223,584,285,165,7776,-1455,-12709,-6659,1608,1099,-474,47,45,-27
2161,114,192,315,763,1219,589,281,164,7769,-1452,-12717,-6653,1592,1121,-489,37,-25,3
2176,116,184,297,710,1149,581,271,159,7760,-1454,-12721,-6655,1631,1136,-483,-16,-37,-4
2198,87,128,231,612,1111,419,177,120,7752,-1451,-12723,-6662,1620,1114,-428,-16,-39,-46
2221,102,147,270,686,1230,491,212,162,7747,-1457,-12719,-6675,1654,1097,-421,-79,-34,-28
2236,107,162,284,739,1236,507,229,168,7747,-1457,-12717,-6679,1700,1132,-458,-24,4,-20
2258,114,177,306,803,1269,546,259,185,7747,-1447,-12718,-6676,1638,1105,-429,45,10,-42
2281,113,181,315,903,1408,593,265,213,7750,-1437,-12715,-6683,1618,1123,-435,-3,44,-45
2296,112,183,318,903,1417,600,261,209,7749,-1429,-12712,-6690,1631,1134,-472,-24,38,-44
2318,104,162,265,898,1362,562,242,187,7739,-1432,-12717,-6692,1637,1115,-511,-32,-34,-26
2340,98,152,250,880,1315,567,234,186,7720,-1445,-12725,-6696,1579,1098,-479,-50,-116,4
2356,93,147,244,857,1382,572,219,174,7708,-1457,-12731,-6695,1624,1095,-472,-30,-88,18
2378,103,163,272,733,1290,614,249,157,7697,-1473,-12731,-6704,1644,1126,-456,-87,-79,18
2401,117,177,295,711,1167,641,275,166,7692,-1484,-12727,-6715,1643,1126,-405,-71,-54,10
2415,118,185,310,666,1220,704,291,169,7698,-1486,-12719,-6724,1662,1145,-388,-43,16,2
2438,122,187,309,572,1214,725,298,171,7702,-1482,-12715,-6728,1623,1129,-404,0,18,-8
2461,125,178,283,537,1139,697,289,170,7706,-1474,-12713,-6728,1613,1132,-441,23,41,-17
2475,116,163,258,526,1112,626,264,154,7710,-1464,-12710,-6732,1626,1135,-432,9,45,-32
2498,105,146,226,534,1129,590,242,141,7715,-1457,-12706,-6736,1635,1121,-441,-3,45,-34
2521,82,111,169,471,884,411,184,106,7716,-1448,-12706,-6735,1635,1109,-470,17,38,-42
2535,87,120,180,493,865,373,185,115,7715,-1440,-12708,-6735,1597,1111,-443,22,12,-38
2558,78,116,187,514,939,359,180,109,7718,-1435,-12705,-6738,1635,1133,-450,-5,30,-20
2581,76,110,182,501,1011,359,169,106,7721,-1428,-12702,-6742,1645,1146,-451,-5,45,-26
2595,79,110,181,482,994,357,166,109,7726,-1414,-12701,-6741,1650,1132,-456,36,55,-53
2618,84,124,214,606,1130,357,169,115,7727,-1404,-12701,-6742,1611,1115,-439,19,31,-45
2641,76,110,204,625,1185,355,154,98,7721,-1405,-12701,-6748,1570,1109,-445,-35,-18,-20
2655,73,106,195,623,1187,360,149,93,7722,-1409,-12700,-6749,1619,1134,-438,-17,2,22
2678,72,105,182,630,1229,357,158,93,7721,-1416,-12699,-6750,1626,1118,-422,-22,-27,18
2701,66,101,173,603,1230,328,150,85,7722,-1425,-12695,-6754,1617,1099,-434,-54,-6,24
2715,59,87,136,489,1143,319,142,80,7723,-1433,-12693,-6756,1642,1132,-432,-30,-13,31
2739,54,78,123,433,1117,291,127,76,7720,-1433,-12697,-6751,1632,1135,-460,24,-17,3
2761,50,72,122,385,1021,270,120,75,7713,-1432,-12699,-6755,1646,1164,-440,-10,-33,-20
2775,41,62,110,326,812,222,95,63,7699,-1435,-12704,-6762,1638,1154,-461,-35,-71,-37
2798,40,56,104,321,786,233,94,62,7676,-1440,-12714,-6768,1617,1137,-466,-35,-129,-49
2821,45,55,105,317,786,257,103,65,7665,-1453,-12710,-6785,1632,1104,-395,-111,-82,-29
2835,40,50,95,293,681,238,94,58,7663,-1477,-12699,-6803,1675,1123,-406,-157,-50,35
2858,43,55,89,275,624,223,88,52,7674,-1496,-12687,-6809,1717,1131,-418,-92,22,73
2881,43,54,87,269,563,219,89,50,7684,-1501,-12683,-6803,1642,1125,-416,12,26,54
2903,39,52,87,246,438,190,84,48,7693,-1493,-12681,-6799,1620,1146,-434,38,60,7
2918,29,41,61,175,282,113,47,31,7685,-1485,-12686,-6801,1576,1147,-480,8,-5,-39
2941,29,39,56,161,240,97,45,32,7665,-1494,-12694,-6807,1591,1133,-499,-59,-96,-18
2963,21,26,41,122,176,72,40,30,7641,-1512,-12701,-6817,1607,1119,-491,-101,-139,-6
2978,21,26,37,107,138,54,36,32,7612,-1532,-12711,-6825,1625,1127,-506,-100,-172,-14
3001,20,26,31,91,66,45,32,36,7571,-1552,-12730,-6831,1611,1118,-511,-75,-242,-39
3023,20,25,27,65,58,36,30,40,7525,-1569,-12753,-6836,1611,1123,-464,-33,-297,-66
3038,21,23,30,81,71,33,26,40,7481,-1584,-12777,-6836,1638,1107,-466,-9,-298,-76
3061,24,25,30,91,72,40,27,39,7438,-1597,-12801,-6833,1629,1128,-466,16,-298,-61
3083,23,23,32,94,75,42,24,39,7410,-1610,-12820,-6827,1649,1127,-447,34,-232,-27
3098,22,22,33,112,97,43,25,34,7401,-1614,-12826,-6824,1678,1150,-467,20,-87,-18
3121,21,20,32,112,97,45,27,27,7399,-1613,-12828,-6823,1624,1160,-481,18,-23,-9
3143,19,21,27,94,82,41,26,28,7395,-1610,-12831,-6822,1610,1163,-507,22,-21,-16
3158,15,19,29,87,80,35,25,30,7385,-1607,-12837,-6822,1595,1164,-522,7,-41,-29
3181,20,19,27,83,78,35,27,28,7370,-1607,-12846,-6823,1594,1151,-538,3,-73,-41
3203,22,21,25,53,53,33,24,26,7344,-1609,-12860,-6822,1573,1145,-536,8,-142,-51
3218,22,22,29,52,53,34,24,26,7318,-1618,-12875,-6821,1595,1133,-534,-6,-168,-33
3240,24,20,29,49,58,39,26,23,7292,-1630,-12888,-6820,1606,1146,-527,-14,-175,-21
3263,23,25,28,41,59,40,25,25,7267,-1642,-12901,-6820,1596,1145,-528,-10,-170,-17
3278,20,27,30,41,58,41,25,25,7248,-1649,-12909,-6822,1576,1151,-504,-14,-136,-21
3301,20,26,30,36,57,42,31,24,7234,-1654,-12915,-6826,1573,1149,-526,-25,-87,-22
3323,20,25,27,35,54,39,30,24,7221,-1659,-12918,-6831,1574,1156,-527,-28,-74,-18
3338,16,25,31,32,48,35,29,23,7210,-1664,-12921,-6836,1582,1164,-545,-33,-62,-14
3361,21,20,29,29,43,30,27,19,7201,-1669,-12922,-6843,1587,1166,-529,-42,-55,-13
3383,21,22,26,23,44,30,26,22,7194,-1674,-12922,-6849,1594,1171,-532,-40,-49,-9
3398,21,20,27,23,37,26,19,25,7187,-1678,-12922,-6855,1591,1165,-531,-35,-38,-13
3421,21,23,25,20,38,32,21,23,7181,-1682,-12922,-6860,1581,1152,-524,-31,-40,-13
3443,24,24,22,20,35,30,20,22,7174,-1685,-12926,-6861,1565,1146,-553,-14,-44,-9
3458,21,24,24,22,33,30,21,23,7165,-1688,-12931,-6860,1570,1151,-546,-2,-56,-10
3481,21,22,23,21,31,29,24,21,7155,-1692,-12937,-6859,1582,1159,-555,2,-67,-9
3503,20,22,22,22,29,31,23,19,7140,-1698,-12945,-6857,1585,1165,-565,0,-92,-9
3518,21,21,23,21,31,35,26,21,7120,-1707,-12955,-6855,1575,1167,-564,-5,-134,-7
3541,21,20,19,21,37,34,26,24,7100,-1719,-12965,-6856,1600,1175,-567,-22,-142,-5
3563,21,21,19,22,39,36,29,25,7078,-1730,-12974,-6858,1582,1179,-565,-25,-143,-6
3578,22,21,21,22,42,37,25,24,7058,-1742,-12983,-6857,1587,1159,-573,-22,-141,-4
3601,22,21,22,21,47,34,27,24,7042,-1756,-12990,-6859,1591,1164,-551,-31,-131,6
3623,22,21,22,24,46,32,26,23,7035,-1770,-12990,-6862,1604,1142,-537,-39,-87,23
3638,22,22,23,26,43,35,27,22,7034,-1782,-12989,-6861,1608,1154,-559,-26,-41,39
3661,22,21,24,25,47,40,25,26,7040,-1790,-12987,-6858,1604,1143,-550,-4,-3,40
3683,23,21,23,25,46,43,25,27,7047,-1794,-12984,-6856,1595,1161,-554,1,17,36
3698,24,20,20,25,42,44,24,28,7052,-1796,-12981,-6854,1590,1164,-572,1,24,24
3722,22,21,20,24,41,38,23,31,7055,-1796,-12980,-6854,1577,1157,-577,-2,12,-1
3743,24,20,20,22,42,38,23,29,7055,-1796,-12980,-6854,1579,1157,-564,-4,4,-8
21,Repeat 2,,,,,,,,,,,,,,,,,
37,26,18,24,22,38,28,24,26,7057,-1795,-12979,-6854,1607,1168,-584,-1,17,-4
58,26,20,25,22,42,30,23,27,7060,-1794,-12978,-6853,1602,1162,-594,1,24,-3
81,27,19,27,22,41,30,23,23,7060,-1794,-12978,-6852,1592,1158,-587,-12,11,3
97,24,23,28,22,43,31,23,23,7059,-1797,-12978,-6853,1579,1147,-582,-19,-5,7
118,24,24,21,23,44,32,24,23,7057,-1801,-12977,-6857,1579,1157,-570,-30,-13,1
141,21,23,21,21,42,31,24,22,7055,-1805,-12975,-6861,1592,1153,-559,-33,-17,-4
157,20,23,20,22,38,32,25,21,7054,-1806,-12973,-6865,1593,1155,-561,-25,-7,-10
178,20,22,18,21,42,32,26,24,7054,-1806,-12973,-6865,1582,1153,-554,-13,5,-15
201,20,20,17,22,43,33,24,24,7057,-1803,-12971,-6867,1588,1153,-544,0,16,-16
217,20,19,21,24,40,36,21,24,7059,-1798,-12970,-6868,1577,1161,-559,9,19,-19
238,21,20,23,25,44,42,24,26,7060,-1792,-12970,-6869,1577,1163,-572,11,22,-24
261,20,20,24,28,46,42,26,24,7062,-1788,-12969,-6870,1583,1162,-588,-2,29,-20
277,21,23,25,30,43,43,26,21,7063,-1785,-12968,-6870,1586,1163,-576,0,16,-11
298,26,21,28,30,42,38,25,23,7063,-1785,-12969,-6870,1579,1157,-576,1,8,-8
321,25,24,27,31,49,42,29,22,7063,-1785,-12968,-6870,1585,1167,-562,-10,-4,-13
337,26,22,31,31,48,38,26,21,7061,-1785,-12968,-6874,1592,1171,-564,-17,-7,-15
366,27,24,34,27,44,35,24,21,7058,-1785,-12967,-6877,1590,1166,-570,-20,-10,-17
381,27,23,34,28,45,37,23,21,7057,-1786,-12966,-6880,1586,1153,-558,-19,-9,-12
397,21,23,31,29,43,39,27,21,7057,-1786,-12966,-6880,1573,1168,-562,-14,-1,-6
418,20,21,31,26,41,34,22,21,7057,-1786,-12966,-6880,1562,1145,-559,-12,4,-2
441,22,21,26,24,39,35,22,21,7057,-1786,-12966,-6880,1562,1145,-545,-5,1,4
457,20,18,22,25,40,34,22,28,7057,-1786,-12966,-6880,1580,1151,-566,6,6,2
478,22,18,22,24,39,33,22,28,7057,-1787,-12966,-6880,1588,1162,-554,12,13,-2
501,23,19,25,20,40,31,19,28,7061,-1784,-12965,-6879,1591,1185,-556,16,20,7
517,24,18,24,19,34,29,19,31,7061,-1784,-12965,-6879,1597,1188,-572,11,14,8
538,23,20,26,18,37,30,19,32,7061,-1784,-12965,-6879,1591,1190,-563,-1,13,2
561,23,22,26,18,39,34,19,26,7061,-1784,-12965,-6879,1591,1182,-571,-10,10,-10
577,21,23,26,19,40,32,20,26,7058,-1782,-12966,-6882,1567,1167,-572,-10,-7,-17
598,22,25,21,22,40,35,19,26,7056,-1780,-12965,-6884,1573,1156,-561,-10,-4,-23
621,20,25,22,25,45,38,18,24,7056,-1781,-12965,-6884,1582,1138,-560,-6,-1,-13
637,20,25,20,26,42,37,20,23,7056,-1781,-12965,-6884,1587,1150,-554,8,10,-3
660,18,25,22,27,38,33,22,23,7059,-1779,-12965,-6882,1579,1163,-566,12,18,1
681,18,22,23,25,37,33,20,26,7059,-1779,-12965,-6882,1577,1172,-572,11,15,2
697,17,21,22,27,35,30,22,26,7059,-1778,-12965,-6882,1556,1177,-554,2,-8,-1
720,19,22,21,28,35,31,26,23,7056,-1780,-12964,-6886,1562,1164,-548,-21,-15,-4
741,20,22,22,30,40,31,25,23,7056,-1783,-12962,-6889,1586,1162,-552,-20,-9,1
757,22,21,21,30,42,32,25,23,7057,-1783,-12962,-6889,1603,1159,-549,-14,-3,11
780,22,22,21,32,44,36,26,18,7057,-1783,-12962,-6889,1597,1165,-567,-8,5,12
801,22,20,22,31,43,35,29,21,7057,-1783,-12962,-6889,1593,1169,-566,-6,11,11
823,26,20,22,32,39,29,27,21,7057,-1783,-12962,-6889,1589,1171,-569,0,12,1
840,25,21,24,35,34,35,27,24,7061,-1780,-12960,-6890,1601,1175,-559,2,26,-8
861,25,19,21,36,36,39,27,25,7062,-1774,-12959,-6893,1596,1191,-565,2,24,-31
884,25,20,23,36,36,37,27,27,7059,-1767,-12958,-6898,1586,1185,-564,-10,5,-43
900,25,23,24,36,40,40,22,26,7054,-1763,-12958,-6904,1574,1164,-570,-24,-6,-48
921,25,22,24,33,39,40,24,28,7049,-1760,-12959,-6909,1576,1153,-567,-20,-8,-46
943,24,20,24,29,41,38,26,24,7045,-1756,-12959,-6913,1569,1156,-551,-10,-12,-43
960,24,22,25,28,42,35,26,26,7041,-1752,-12961,-6915,1563,1166,-551,1,-13,-35
981,22,23,24,27,44,34,24,24,7040,-1749,-12961,-6916,1565,1170,-546,5,-7,-20
1003,21,22,22,23,40,31,27,24,7040,-1749,-12961,-6917,1568,1167,-545,10,-11,-12
1020,17,22,24,28,39,32,28,27,7040,-1749,-12961,-6917,1575,1178,-539,10,-5,-16
1041,21,21,24,29,42,34,28,29,7041,-1749,-12961,-6917,1583,1169,-554,9,9,-7
1063,20,22,23,28,45,34,31,28,7041,-1749,-12961,-6917,1576,1172,-562,4,12,2
1080,20,20,23,30,43,34,30,28,7041,-1751,-12962,-6914,1557,1169,-565,10,-7,18
1101,20,18,23,45,51,34,33,28,7040,-1756,-12965,-6909,1542,1154,-550,17,-25,28
1123,23,22,25,58,65,46,32,24,7043,-1762,-12964,-6905,1552,1156,-535,8,-6,43
1140,21,24,24,68,71,48,32,30,7060,-1775,-12957,-6897,1586,1135,-530,1,40,103
1161,19,24,24,69,68,48,30,28,7081,-1787,-12950,-6886,1592,1170,-518,29,55,133
1183,24,24,24,75,82,49,30,28,7103,-1791,-12945,-6871,1567,1164,-527,68,82,117
1200,25,25,29,87,99,58,30,28,7135,-1790,-12935,-6858,1566,1146,-515,66,149,113
1221,25,23,29,85,98,49,28,30,7168,-1788,-12925,-6842,1555,1136,-544,72,168,120
1244,24,22,29,80,112,46,27,23,7200,-1792,-12917,-6822,1580,1131,-553,74,144,148
1259,24,25,38,103,158,59,33,24,7233,-1798,-12910,-6799,1596,1131,-526,95,125,164
1281,23,27,45,111,158,63,38,28,7268,-1799,-12904,-6774,1614,1146,-555,114,160,158
1303,23,27,43,101,152,58,37,28,7298,-1803,-12900,-6748,1622,1147,-560,106,122,164
1320,22,27,41,97,149,59,38,29,7313,-1810,-12901,-6727,1583,1147,-555,92,48,140
1341,21,26,41,98,141,60,40,29,7320,-1821,-12904,-6710,1567,1123,-535,59,-8,125
1363,21,25,36,85,154,64,39,30,7333,-1839,-12902,-6695,1617,1111,-519,30,0,147
1380,20,25,34,100,174,64,39,28,7362,-1858,-12891,-6680,1654,1080,-487,27,74,180
1401,23,25,39,139,204,77,41,32,7396,-1883,-12882,-6653,1653,1079,-528,53,95,251
1423,26,29,45,181,219,87,48,29,7429,-1906,-12874,-6625,1636,1083,-541,67,95,259
1440,34,42,72,198,242,110,59,33,7462,-1911,-12865,-6604,1631,1120,-522,89,143,181
1462,36,42,74,208,289,105,56,33,7491,-1913,-12856,-6587,1632,1094,-535,70,140,139
1483,36,48,85,214,279,119,59,45,7508,-1918,-12852,-6574,1648,1067,-549,41,76,102
1499,35,53,89,218,292,145,69,79,7524,-1930,-12847,-6563,1617,1002,-497,14,43,102
1521,50,74,122,286,459,178,94,103,7517,-1954,-12863,-6533,1617,1011,-574,85,-119,152
1543,57,88,145,376,507,231,116,111,7483,-1970,-12908,-6478,1648,1075,-559,281,-335,122
1560,71,122,202,479,696,323,150,117,7483,-1962,-12926,-6445,1691,1086,-497,227,-79,47
1582,80,138,228,516,821,362,162,117,7474,-1953,-12944,-6422,1682,1101,-574,165,-84,11
1603,87,152,256,570,916,410,184,115,7457,-1957,-12961,-6406,1637,1069,-574,88,-132,28
1620,83,160,280,569,981,460,206,112,7446,-1961,-12974,-6392,1634,1040,-577,73,-100,30
1641,89,158,274,572,1033,470,214,116,7446,-1964,-12981,-6376,1690,1051,-584,78,-37,43
1663,83,139,241,506,996,430,199,113,7447,-1973,-12987,-6360,1702,1036,-608,56,-39,73
1680,81,136,249,577,984,431,205,124,7444,-1986,-12995,-6342,1634,1006,-565,65,-77,89
1701,78,131,241,633,1088,414,202,114,7438,-1999,-13008,-6317,1628,999,-612,93,-90,94
1723,76,118,208,646,1033,364,176,102,7435,-2018,-13018,-6296,1639,964,-621,52,-80,111
1740,83,141,247,648,1097,413,212,135,7435,-2035,-13027,-6271,1694,1006,-613,82,-78,122
1761,87,150,265,794,1132,479,224,158,7442,-2055,-13027,-6255,1701,983,-579,27,-41,126
1783,87,145,253,769,1180,523,227,152,7449,-2078,-13028,-6238,1731,1005,-634,16,-31,141
1800,95,163,286,715,1114,597,261,173,7452,-2103,-13035,-6211,1714,1000,-655,61,-59,178
1821,119,197,345,732,1320,685,298,194,7453,-2123,-13044,-6184,1688,1010,-670,80,-62,159
1843,107,180,315,714,1276,638,262,166,7449,-2139,-13056,-6158,1684,986,-657,89,-82,122
1860,105,172,298,564,1279,597,252,146,7451,-2152,-13056,-6151,1696,965,-613,2,-34,73
1881,108,181,324,519,1277,617,270,156,7452,-2172,-13058,-6140,1708,938,-635,-7,-50,96
1903,128,203,351,567,1450,702,316,191,7455,-2191,-13061,-6124,1728,914,-651,16,-42,90
1920,109,170,294,681,1303,605,277,171,7451,-2205,-13070,-6103,1716,938,-670,58,-75,83
1941,112,175,294,758,1304,653,297,179,7440,-2218,-13084,-6081,1681,939,-674,74,-107,72
1963,130,220,320,801,1332,799,370,211,7431,-2229,-13095,-6064,1676,949,-684,47,-88,66
1986,132,231,322,883,1349,768,366,209,7427,-2247,-13100,-6052,1698,920,-654,10,-78,82
2001,117,206,261,943,1128,660,308,177,7427,-2262,-13103,-6041,1728,918,-656,11,-49,67
2023,121,214,274,890,1056,694,319,183,7426,-2275,-13106,-6029,1736,932,-669,18,-49,64
2046,125,226,308,861,1090,670,312,185,7418,-2283,-13114,-6020,1713,953,-676,25,-70,37
2061,139,233,370,852,1162,622,286,171,7408,-2292,-13121,-6013,1688,943,-677,11,-82,32
2083,135,215,349,791,1077,585,265,176,7411,-2303,-13117,-6014,1752,966,-636,-29,-17,49
2106,128,220,344,673,1103,574,275,192,7412,-2315,-13115,-6012,1772,940,-683,-33,-22,45
2121,140,237,396,687,1161,604,328,244,7408,-2319,-13118,-6010,1744,950,-690,-4,-29,5
2143,137,225,378,720,1209,605,320,254,7392,-2318,-13129,-6004,1647,954,-708,30,-75,-14
2166,157,193,333,814,1168,617,317,261,7380,-2328,-13133,-6009,1681,927,-657,-46,-81,0
2182,197,204,342,883,1291,642,339,266,7371,-2344,-13133,-6012,1701,916,-680,-68,-69,32
2203,197,189,340,916,1277,608,320,247,7373,-2359,-13128,-6014,1761,902,-679,-69,-12,37
2226,195,184,320,963,1345,592,288,224,7370,-2371,-13130,-6008,1740,891,-706,-21,-41,30
2242,199,196,330,930,1334,607,300,209,7364,-2382,-13136,-6000,1721,948,-723,9,-56,50
2263,159,189,300,863,1264,458,240,180,7350,-2394,-13145,-5992,1679,952,-701,6,-101,48
2286,116,194,328,795,1144,554,249,184,7346,-2405,-13144,-5995,1730,961,-669,-37,-48,36
2302,125,208,345,758,1143,624,269,187,7346,-2412,-13140,-6001,1747,952,-664,-49,-15,17
2323,124,199,317,604,1080,632,257,159,7346,-2412,-13139,-6002,1736,947,-642,5,-3,5
2346,146,214,336,599,1196,690,308,190,7346,-2406,-13144,-5996,1680,933,-641,59,-20,-16
2362,158,216,344,535,1186,709,328,201,7343,-2391,-13151,-5988,1676,951,-660,92,-13,-43
2383,151,206,299,522,1205,632,311,193,7349,-2384,-13147,-5992,1679,950,-657,4,45,-19
2406,150,204,304,664,1155,587,323,198,7353,-2384,-13142,-6000,1704,920,-691,-51,44,-19
2422,146,205,306,694,1082,564,342,202,7359,-2382,-13139,-5998,1751,920,-699,6,37,-6
2443,123,187,302,749,879,502,306,171,7359,-2383,-13140,-5997,1703,910,-709,11,1,-12
2466,104,173,294,801,826,474,289,159,7352,-2381,-13145,-5994,1658,955,-707,18,-26,-3
2488,114,180,309,815,905,545,342,175,7349,-2380,-13145,-5998,1718,962,-686,-17,-8,-14
2503,107,165,282,708,1023,538,313,162,7347,-2380,-13144,-6003,1722,950,-668,-23,-11,-20
2526,96,145,251,734,1054,512,270,143,7353,-2382,-13135,-6014,1737,957,-616,-47,23,0
2550,91,132,211,690,1018,497,285,162,7365,-2380,-13125,-6023,1728,951,-635,-35,66,-2
2563,89,129,209,747,1013,480,281,170,7373,-2375,-13118,-6030,1717,948,-662,-28,64,-22
2586,91,128,217,806,1072,459,213,149,7375,-2369,-13115,-6036,1699,947,-675,-22,39,-31
2602,89,140,233,791,1139,519,251,149,7379,-2363,-13111,-6042,1698,942,-660,-15,43,-31
2623,92,146,240,850,1171,545,263,152,7382,-2356,-13108,-6048,1695,938,-675,-19,46,-43
2653,90,144,236,855,1332,537,227,131,7390,-2349,-13102,-6054,1706,946,-646,-11,64,-28
2662,100,152,239,773,1415,582,242,123,7392,-2342,-13100,-6058,1718,941,-686,-11,42,-43
2683,104,166,247,758,1356,580,261,136,7391,-2337,-13101,-6059,1674,924,-659,5,11,-37
2706,102,162,237,812,1259,523,231,136,7396,-2331,-13098,-6063,1690,946,-625,-1,29,-25
2722,110,173,246,717,1247,510,258,153,7401,-2325,-13093,-6070,1718,952,-638,-19,47,-36
2743,116,180,279,664,1071,521,286,162,7404,-2317,-13091,-6074,1705,961,-660,-4,40,-37
2766,126,205,320,703,1206,552,307,177,7406,-2308,-13091,-6074,1680,938,-650,25,27,-39
2782,117,196,309,651,1162,530,297,163,7404,-2306,-13092,-6075,1654,925,-666,-13,10,-20
2803,115,187,306,631,1099,518,293,158,7405,-2307,-13089,-6079,1687,954,-654,-26,16,-2
2826,105,171,295,651,1108,514,264,147,7411,-2300,-13086,-6083,1725,969,-647,-2,46,-23
2850,95,155,259,645,1099,475,226,136,7415,-2288,-13083,-6088,1731,964,-658,6,56,-63
2863,73,114,197,577,858,402,185,109,7410,-2278,-13085,-6094,1701,966,-669,-6,5,-70
2886,74,108,185,513,862,421,183,112,7398,-2275,-13089,-6100,1681,971,-675,-27,-39,-51
2908,82,115,186,462,1024,457,192,118,7390,-2273,-13089,-6111,1715,989,-670,-54,-14,-52
2923,86,123,197,424,946,454,190,109,7381,-2263,-13092,-6120,1705,974,-648,-18,-24,-86
2946,85,123,199,410,902,445,184,106,7365,-2252,-13097,-6132,1687,974,-659,-30,-47,-118
2968,84,121,204,421,828,427,179,105,7346,-2240,-13102,-6149,1696,981,-654,-51,-62,-143
2983,72,102,181,423,747,342,151,86,7322,-2227,-13111,-6161,1668,986,-662,-25,-87,-144
3006,61,91,165,415,511,265,130,71,7297,-2217,-13121,-6174,1686,993,-671,-32,-101,-141
3028,55,74,144,381,567,228,116,65,7288,-2214,-13118,-6193,1713,962,-626,-95,-32,-102
3045,54,72,138,390,587,223,115,65,7287,-2212,-13110,-6212,1730,1012,-621,-84,6,-65
3066,47,59,106,333,578,198,105,60,7286,-2207,-13104,-6227,1699,1006,-617,-61,14,-65
3088,41,47,87,312,525,170,93,54,7278,-2195,-13105,-6239,1679,1019,-665,-28,5,-96
3103,41,47,83,266,471,166,88,55,7254,-2179,-13114,-6253,1589,984,-686,-38,-62,-157
3126,31,43,67,229,321,123,78,44,7219,-2181,-13128,-6264,1596,957,-690,-72,-156,-111
3148,37,43,62,172,257,118,72,37,7193,-2195,-13133,-6278,1613,1000,-664,-111,-142,-33
3163,41,47,77,215,264,115,63,36,7181,-2215,-13132,-6288,1683,1024,-638,-99,-101,38
3186,42,48,78,210,274,116,70,39,7184,-2225,-13123,-6300,1696,1024,-602,-79,-8,18
3208,42,47,80,207,275,113,74,38,7193,-2227,-13113,-6308,1681,1008,-603,-42,40,6
3223,40,44,80,204,262,108,72,37,7199,-2219,-13107,-6316,1663,1037,-646,-22,62,-38
3246,35,37,68,192,239,88,69,35,7188,-2206,-13112,-6324,1604,1018,-685,-12,-5,-89
3268,28,27,49,129,158,60,63,31,7168,-2202,-13119,-6334,1607,1047,-706,-49,-60,-77
3283,26,26,46,116,130,54,45,27,7147,-2205,-13123,-6347,1605,1038,-692,-82,-77,-47
3306,27,23,41,99,110,48,38,24,7120,-2221,-13129,-6361,1614,1062,-682,-109,-147,-8
3328,27,26,36,74,87,42,38,23,7087,-2241,-13138,-6372,1644,1069,-684,-102,-193,-2
3343,24,22,33,69,77,33,36,22,7051,-2256,-13152,-6377,1672,1062,-678,-58,-229,-32
3366,26,21,21,35,46,27,33,25,7012,-2262,-13171,-6380,1674,1060,-670,-8,-243,-85
3388,24,22,21,29,39,25,31,25,6974,-2261,-13189,-6383,1676,1044,-676,-1,-227,-123
3403,25,23,18,29,35,25,27,25,6942,-2259,-13204,-6389,1681,1037,-667,-10,-189,-124
3426,25,19,19,27,31,24,25,28,6919,-2259,-13213,-6396,1670,1050,-690,-27,-134,-94
3448,25,22,19,27,26,24,33,30,6897,-2259,-13221,-6402,1653,1062,-697,-25,-120,-75
3463,23,23,20,26,23,24,33,26,6874,-2257,-13231,-6407,1627,1066,-713,-18,-118,-78
3486,25,22,20,31,28,32,39,27,6849,-2259,-13239,-6415,1613,1065,-715,-43,-127,-76
3510,24,23,20,29,27,33,39,27,6825,-2261,-13245,-6430,1611,1065,-692,-73,-124,-85
3523,26,28,21,31,27,33,38,26,6805,-2262,-13246,-6448,1606,1063,-685,-95,-93,-84
3546,24,25,21,31,29,33,31,25,6791,-2262,-13244,-6465,1610,1059,-688,-88,-58,-81
3568,24,26,22,30,35,36,40,24,6781,-2259,-13242,-6481,1593,1052,-680,-75,-33,-85
3583,24,26,22,29,33,28,34,24,6776,-2254,-13239,-6496,1605,1070,-678,-60,-5,-71
3606,22,25,22,29,32,32,33,22,6779,-2250,-13232,-6507,1608,1062,-677,-51,32,-44
3628,19,20,21,26,34,31,33,20,6788,-2244,-13225,-6515,1605,1071,-677,-30,62,-29
3643,19,23,22,27,32,31,33,19,6797,-2233,-13218,-6524,1593,1088,-687,-20,85,-45
3666,19,24,21,28,26,28,30,22,6808,-2218,-13209,-6534,1597,1094,-684,-18,108,-54
3688,19,24,22,26,25,33,34,39,6819,-2202,-13202,-6543,1602,1114,-699,-13,114,-58
3705,20,23,22,24,24,29,36,42,6827,-2188,-13197,-6550,1596,1115,-733,-12,100,-47
3726,21,23,21,25,27,30,37,43,6827,-2182,-13195,-6556,1573,1105,-731,-30,49,-30
3748,23,20,20,26,26,29,35,43,6822,-2184,-13195,-6561,1552,1092,-706,-40,-5,-2
3765,23,18,20,26,26,27,28,43,6810,-2192,-13197,-6566,1541,1093,-705,-57,-56,9
3786,24,20,19,23,25,21,23,28,6792,-2206,-13200,-6574,1550,1086,-691,-75,-105,8
3808,24,19,21,22,25,27,28,25,6772,-2217,-13204,-6583,1574,1092,-661,-65,-124,-14
3825,32,23,23,22,22,26,27,27,6756,-2223,-13209,-6587,1597,1081,-669,-33,-108,-35
3846,31,24,21,19,20,27,30,29,6743,-2220,-13213,-6593,1612,1127,-658,-4,-76,-59
3868,33,26,21,16,21,27,31,30,6732,-2211,-13218,-6596,1608,1127,-669,18,-56,-72
3891,33,24,23,17,21,27,30,29,6720,-2202,-13225,-6599,1578,1122,-676,23,-52,-75
3906,32,25,21,17,21,21,24,29,6710,-2193,-13230,-6603,1563,1120,-656,23,-52,-67
3928,23,23,20,17,19,24,27,27,6700,-2185,-13234,-6605,1588,1113,-672,16,-48,-70
3951,25,24,22,17,20,23,27,28,6693,-2177,-13237,-6611,1576,1111,-675,-3,-28,-70
3966,23,23,21,18,19,25,26,24,6688,-2169,-13237,-6617,1592,1122,-676,-2,-14,-66
3988,23,25,21,17,18,26,28,28,6686,-2161,-13238,-6620,1574,1127,-679,11,-3,-48
4011,23,25,19,18,19,25,25,26,6686,-2152,-13239,-6621,1576,1119,-679,25,9,-43
1,Repeat 3,,,,,,,,,,,,,,,,,
24,24,24,18,17,22,25,19,23,6688,-2131,-13240,-6624,1592,1139,-694,24,24,-49
46,22,24,22,27,28,24,20,24,6691,-2118,-13239,-6627,1592,1145,-682,22,35,-57
61,20,24,21,28,29,25,18,21,6699,-2106,-13236,-6630,1592,1128,-700,13,72,-46
84,22,24,22,29,35,28,21,22,6706,-2095,-13233,-6630,1584,1118,-713,13,69,-40
106,21,24,23,31,35,29,25,21,6718,-2084,-13229,-6631,1580,1119,-700,18,93,-30
121,20,25,25,32,45,31,27,23,6729,-2074,-13226,-6630,1573,1111,-710,17,84,-26
144,23,25,31,33,58,42,33,25,6745,-2071,-13219,-6628,1582,1099,-711,-5,102,19
166,24,24,32,36,62,41,33,24,6762,-2077,-13210,-6627,1599,1126,-697,-20,87,73
181,22,26,32,47,86,40,33,23,6778,-2082,-13202,-6625,1586,1134,-690,-9,77,69
204,21,25,30,48,88,39,35,25,6791,-2080,-13196,-6624,1586,1136,-694,4,82,31
226,21,23,31,48,86,39,34,23,6799,-2074,-13192,-6625,1585,1118,-695,-1,68,-7
241,21,22,25,45,78,24,27,23,6805,-2066,-13190,-6626,1588,1108,-699,-2,59,-33
264,21,24,25,45,76,28,28,24,6806,-2056,-13189,-6629,1583,1116,-690,3,40,-51
286,22,21,24,34,44,25,28,24,6805,-2047,-13190,-6632,1582,1108,-697,-1,25,-62
301,23,21,25,34,44,29,26,21,6801,-2039,-13191,-6636,1575,1115,-691,-8,9,-55
324,23,23,28,44,50,29,26,23,6802,-2035,-13188,-6641,1578,1107,-664,-19,21,-34
346,21,23,26,42,49,30,26,19,6805,-2034,-13185,-6645,1587,1108,-678,-27,25,-16
361,22,21,26,41,48,28,28,17,6807,-2033,-13181,-6651,1575,1121,-668,-32,27,-15
384,23,22,28,40,47,31,25,16,6810,-2031,-13176,-6658,1584,1131,-661,-34,31,-16
406,23,24,31,48,50,29,23,18,6813,-2029,-13172,-6664,1570,1114,-664,-36,28,-17
421,22,21,27,37,40,28,27,18,6816,-2032,-13169,-6667,1566,1106,-653,-30,15,7
444,22,21,27,38,38,26,26,20,6817,-2035,-13167,-6669,1589,1123,-680,-23,11,6
466,24,22,27,37,37,25,24,22,6819,-2032,-13164,-6672,1610,1151,-682,-18,28,-12
489,23,21,26,38,39,25,25,23,6819,-2027,-13163,-6677,1598,1163,-687,-15,25,-28
504,24,20,21,24,30,23,23,22,6815,-2024,-13162,-6685,1584,1157,-661,-30,-7,-33
526,24,21,21,28,32,22,20,20,6808,-2024,-13161,-6693,1588,1142,-670,-43,-18,-35
541,27,21,22,29,37,26,23,18,6800,-2023,-13161,-6702,1569,1133,-674,-51,-24,-43
564,24,20,22,38,39,29,25,21,6794,-2021,-13159,-6711,1572,1121,-661,-46,-7,-50
586,26,23,23,42,39,27,26,21,6793,-2019,-13157,-6718,1555,1105,-659,-42,15,-38
609,23,24,25,47,41,26,26,23,6795,-2023,-13153,-6723,1576,1118,-656,-42,9,2
624,24,23,24,51,41,28,24,24,6798,-2028,-13148,-6727,1569,1130,-633,-34,6,23
646,21,23,24,52,43,25,23,24,6803,-2032,-13143,-6730,1582,1143,-642,-29,24,22
661,22,23,23,50,43,22,21,21,6810,-2032,-13137,-6734,1591,1145,-646,-29,41,10
684,23,23,22,48,46,25,18,21,6812,-2030,-13134,-6740,1572,1154,-642,-26,25,-7
706,24,25,22,46,49,29,20,20,6817,-2027,-13129,-6745,1561,1138,-627,-19,38,-7
721,25,28,25,43,63,33,21,21,6823,-2023,-13126,-6746,1576,1120,-615,9,30,-14
744,29,35,28,51,73,37,19,20,6831,-2011,-13124,-6745,1582,1149,-635,37,61,-31
768,28,38,34,62,88,45,23,22,6844,-1995,-13122,-6742,1598,1140,-615,62,83,-43
789,27,37,36,63,91,44,26,22,6855,-1975,-13120,-6740,1587,1154,-632,62,95,-54
804,28,35,36,64,92,45,26,23,6868,-1957,-13116,-6740,1574,1148,-617,47,102,-47
826,27,35,35,63,86,40,28,22,6877,-1945,-13112,-6742,1575,1158,-643,18,80,-28
849,23,30,38,66,82,42,29,22,6887,-1942,-13108,-6740,1580,1142,-631,12,59,16
864,25,26,37,68,89,39,26,21,6902,-1945,-13102,-6735,1597,1130,-633,8,69,50
886,25,31,39,70,106,49,26,21,6920,-1948,-13096,-6728,1605,1135,-660,14,92,66
909,30,42,50,104,152,62,29,22,6940,-1946,-13088,-6723,1587,1134,-625,19,111,57
924,31,43,53,118,166,66,29,22,6957,-1943,-13085,-6714,1579,1140,-644,44,92,53
946,34,43,51,123,167,64,30,22,6973,-1942,-13080,-6705,1582,1143,-608,51,78,63
969,36,55,59,122,198,76,35,26,6989,-1943,-13077,-6695,1584,1121,-603,46,62,63
984,37,60,73,171,212,85,34,30,7003,-1948,-13075,-6682,1603,1144,-624,56,50,95
1006,38,59,76,166,190,82,37,30,7020,-1939,-13074,-6669,1604,1148,-594,96,76,40
1029,42,63,77,159,186,91,42,36,7036,-1921,-13074,-6657,1601,1135,-629,108,109,-12
1044,40,63,81,156,202,98,47,37,7056,-1895,-13072,-6648,1589,1116,-612,109,146,-48
1066,36,53,74,154,164,90,44,34,7071,-1874,-13070,-6641,1588,1083,-636,71,130,-50
1089,35,46,61,104,162,83,53,34,7082,-1862,-13068,-6638,1584,1068,-637,30,94,-42
1104,28,38,49,110,179,87,52,34,7090,-1855,-13065,-6637,1563,1081,-630,3,69,-17
1126,23,33,49,120,182,82,48,30,7094,-1857,-13064,-6634,1565,1094,-617,1,24,26
1149,32,44,77,152,200,121,64,39,7101,-1869,-13062,-6628,1582,1093,-612,-5,10,80
1164,32,47,83,151,259,130,68,43,7112,-1885,-13058,-6619,1630,1117,-611,1,13,119
1186,36,54,89,185,312,145,71,49,7129,-1891,-13051,-6612,1630,1127,-578,20,62,85
1209,49,66,114,252,365,155,86,65,7149,-1885,-13045,-6603,1610,1126,-571,65,95,55
1224,51,79,136,308,402,173,101,77,7163,-1881,-13045,-6590,1575,1115,-597,82,66,62
1246,47,80,138,341,612,168,107,79,7176,-1888,-13046,-6572,1595,1102,-590,75,28,111
1269,52,89,151,403,653,194,117,86,7202,-1904,-13037,-6556,1633,1085,-562,37,68,165
1284,73,91,162,430,674,225,128,111,7208,-1911,-13048,-6526,1636,1146,-651,143,-16,135
1306,69,89,163,462,829,239,145,110,7209,-1893,-13062,-6503,1637,1142,-619,182,-2,-10
1329,69,80,152,440,918,245,141,104,7213,-1869,-13068,-6493,1612,1135,-587,136,36,-56
1344,73,78,143,454,900,250,136,104,7196,-1856,-13086,-6478,1535,1095,-617,128,-86,-42
1366,71,81,161,475,981,237,139,106,7196,-1854,-13093,-6465,1638,1118,-640,77,-17,21
1389,59,93,167,482,1041,273,158,106,7210,-1854,-13089,-6459,1658,1073,-596,31,52,37
1404,72,108,190,425,1064,347,198,133,7228,-1864,-13084,-6445,1701,1060,-677,17,78,89
1427,74,117,212,490,1088,369,215,158,7226,-1874,-13093,-6425,1642,1086,-704,60,-35,86
1449,75,125,230,509,1103,391,227,159,7200,-1887,-13119,-6398,1555,1039,-727,97,-177,55
1464,94,151,265,582,1135,455,249,181,7180,-1909,-13134,-6384,1545,1032,-697,7,-143,84
1487,96,160,299,722,1118,462,245,178,7175,-1941,-13132,-6383,1624,1048,-613,-78,-97,128
1517,98,154,288,752,1017,438,221,166,7191,-1968,-13121,-6381,1699,1044,-582,-61,-1,140
1524,106,151,287,780,1037,429,219,162,7206,-1975,-13115,-6374,1675,1066,-584,31,35,81
1546,114,157,285,762,1055,418,215,179,7200,-1965,-13131,-6350,1564,1052,-663,152,-44,4
1569,104,139,261,727,1012,368,197,161,7202,-1965,-13139,-6333,1587,1072,-624,106,-22,62
1584,114,142,238,622,1088,340,186,163,7212,-1964,-13134,-6330,1677,1127,-624,29,43,48
1606,112,148,261,612,1148,305,173,160,7210,-1973,-13138,-6322,1677,1082,-685,13,-37,54
1629,117,169,288,569,1216,328,192,160,7208,-1978,-13142,-6316,1660,1084,-671,22,-30,44
1644,133,202,335,656,1204,411,248,168,7187,-1983,-13161,-6297,1550,1019,-702,83,-126,19
1666,130,196,325,662,1264,410,243,168,7186,-1996,-13162,-6292,1630,1044,-618,2,-57,68
1689,122,192,328,641,1247,403,264,187,7194,-2007,-13155,-6293,1699,1060,-619,-27,4,62
1704,116,189,308,615,1194,421,265,191,7210,-2013,-13148,-6287,1717,1022,-657,1,61,47
1726,110,182,288,610,1107,436,262,188,7215,-2018,-13153,-6271,1672,995,-750,37,23,44
1749,102,167,268,548,1177,425,242,183,7193,-2038,-13179,-6235,1523,973,-780,111,-156,119
1771,101,167,273,505,1149,414,237,176,7177,-2067,-13197,-6204,1551,1013,-714,84,-171,182
1786,109,179,292,507,1189,479,245,165,7175,-2113,-13196,-6195,1683,1053,-634,-59,-137,231
1809,107,177,297,524,1212,495,256,198,7182,-2154,-13184,-6198,1726,1063,-607,-103,-66,205
1831,105,165,288,501,1136,476,240,195,7184,-2182,-13176,-6202,1686,1068,-637,-84,-55,142
1846,95,150,258,458,1049,449,228,188,7169,-2203,-13184,-6196,1599,1010,-667,-12,-131,88
1869,98,152,248,481,963,458,232,190,7152,-2213,-13194,-6189,1597,1044,-654,29,-131,49
1891,114,176,295,544,1012,529,269,203,7154,-2227,-13188,-6196,1729,1015,-620,-58,-41,38
1906,120,189,325,577,1053,562,275,167,7171,-2237,-13172,-6206,1794,1013,-643,-79,62,36
1929,116,188,319,555,1136,554,281,176,7185,-2236,-13167,-6202,1741,989,-714,3,72,11
1951,111,179,313,592,1159,541,270,168,7180,-2234,-13177,-6187,1638,987,-771,64,-12,10
1966,114,183,317,606,1211,573,284,176,7165,-2239,-13192,-6170,1547,980,-716,73,-95,40
1989,83,142,248,544,1140,463,227,152,7158,-2257,-13191,-6173,1662,998,-674,-60,-69,55
2011,85,135,210,540,1077,389,203,165,7158,-2277,-13184,-6182,1713,988,-643,-99,-46,58
2026,86,146,234,547,1088,418,212,151,7161,-2288,-13178,-6186,1709,990,-666,-49,-10,37
2049,89,151,246,538,1034,416,217,154,7157,-2292,-13184,-6177,1658,968,-697,33,-44,11
2071,92,155,258,490,1126,403,215,149,7150,-2295,-13192,-6168,1616,997,-723,34,-43,26
2086,94,155,259,474,1116,399,213,144,7143,-2303,-13194,-6167,1683,1009,-710,-16,-51,24
2109,88,146,249,420,1180,397,213,130,7137,-2306,-13196,-6168,1692,1010,-709,-18,-36,-4
2131,90,141,238,502,1226,377,198,139,7125,-2307,-13202,-6170,1672,990,-710,-12,-63,-37
2146,89,146,251,556,1331,374,188,132,7110,-2304,-13209,-6173,1642,1000,-688,-2,-83,-52
2169,84,139,242,557,1215,338,174,130,7105,-2306,-13209,-6178,1659,988,-676,-27,-34,-23
2191,74,127,235,584,1296,311,180,194,7108,-2301,-13205,-6185,1687,993,-660,-16,16,-36
2206,78,131,256,687,1295,367,205,206,7115,-2298,-13202,-6185,1698,949,-687,-1,34,-34
2229,90,147,282,698,1212,398,229,208,7132,-2299,-13191,-6188,1705,964,-658,-25,78,13
2251,92,146,282,661,1167,455,243,221,7156,-2302,-13175,-6194,1741,1025,-692,-44,139,54
2266,88,143,273,647,1179,445,235,228,7170,-2303,-13164,-6200,1699,1046,-741,-54,109,42
2289,106,178,322,703,1182,546,260,171,7168,-2302,-13165,-6201,1593,1053,-728,0,15,7
2311,115,199,347,653,1260,569,275,168,7163,-2299,-13166,-6205,1619,977,-689,-23,0,-35
2326,106,186,322,635,1331,548,260,155,7154,-2300,-13164,-6219,1674,1018,-665,-66,-39,-41
2350,102,181,316,631,1317,512,261,158,7161,-2295,-13158,-6227,1730,976,-651,-31,42,-57
2371,105,182,320,665,1295,520,283,184,7160,-2289,-13158,-6230,1667,972,-702,-12,18,-52
2386,95,165,287,599,1200,439,259,189,7153,-2293,-13160,-6232,1620,972,-732,-42,-14,-9
2409,83,141,254,601,1157,384,228,180,7145,-2302,-13160,-6237,1624,1031,-693,-51,-39,34
2431,81,140,255,573,1081,384,220,183,7145,-2311,-13156,-6243,1677,994,-645,-50,-20,22
2446,76,130,234,573,1116,393,213,189,7150,-2318,-13144,-6261,1703,1033,-628,-102,23,4
2469,74,127,224,548,1166,390,197,159,7152,-2317,-13137,-6274,1696,1024,-680,-72,34,-25
2491,65,104,192,569,1102,367,194,152,7145,-2313,-13139,-6279,1665,1017,-721,-24,-3,-46
2506,58,90,163,545,994,340,184,143,7134,-2309,-13145,-6279,1608,987,-704,-3,-35,-44
2529,64,94,168,540,1018,402,204,154,7129,-2305,-13146,-6285,1622,991,-622,-9,-24,-44
2551,62,89,166,534,925,372,204,177,7122,-2311,-13143,-6296,1688,1016,-671,-73,-37,-19
2566,68,99,182,534,932,400,208,191,7124,-2319,-13136,-6306,1716,997,-654,-79,1,-5
2589,73,105,197,508,965,435,219,193,7129,-2317,-13132,-6310,1646,992,-643,-16,28,-10
2611,73,106,203,559,1020,444,224,194,7126,-2313,-13132,-6314,1636,1038,-675,-6,6,-19
2628,65,94,188,541,987,378,201,180,7131,-2307,-13129,-6318,1652,1033,-647,0,38,-18
2657,66,104,196,513,963,388,192,138,7135,-2303,-13123,-6326,1694,1043,-654,-31,36,-23
2671,56,90,172,474,880,342,169,109,7140,-2298,-13116,-6337,1670,1037,-652,-40,51,-30
2694,49,76,144,432,913,284,148,101,7137,-2287,-13115,-6347,1645,1044,-662,-23,22,-67
2709,46,71,134,325,892,269,139,99,7133,-2272,-13114,-6358,1639,1040,-677,-18,39,-92
2731,55,91,156,351,892,276,150,106,7131,-2259,-13111,-6372,1628,1015,-632,-37,31,-99
2754,53,82,137,331,900,242,128,86,7132,-2252,-13103,-6389,1665,1039,-628,-72,39,-65
2769,52,82,137,327,860,241,129,78,7138,-2237,-13097,-6400,1674,1042,-638,-15,69,-82
2791,49,81,136,327,749,221,110,70,7140,-2210,-13100,-6402,1652,1041,-657,61,68,-125
2814,56,92,157,342,646,237,117,74,7135,-2176,-13107,-6404,1610,1041,-650,80,41,-167
2829,50,74,138,308,629,211,107,59,7132,-2143,-13109,-6414,1619,1046,-611,50,49,-179
2851,51,76,145,301,728,212,114,64,7138,-2107,-13103,-6432,1672,1087,-614,9,116,-186
2874,61,105,196,415,762,282,153,95,7158,-2064,-13090,-6451,1723,1073,-623,11,211,-202
2890,62,105,193,400,754,282,152,95,7183,-2014,-13076,-6466,1699,1085,-606,50,244,-209
2911,53,93,169,358,725,249,138,88,7201,-1962,-13065,-6484,1661,1104,-637,32,240,-227
2934,53,89,163,343,630,238,134,88,7205,-1921,-13060,-6502,1613,1090,-648,3,149,-210
2949,57,105,195,489,540,272,142,95,7204,-1889,-13058,-6517,1584,1080,-625,-1,95,-174
2971,48,80,150,421,515,211,105,67,7213,-1857,-13050,-6532,1633,1085,-627,-6,151,-163
2994,48,79,148,421,493,208,105,67,7224,-1823,-13040,-6549,1651,1085,-626,-24,162,-180
3009,50,83,150,446,498,210,106,69,7230,-1789,-13034,-6565,1619,1073,-622,-8,145,-189
3031,47,82,147,479,545,204,96,65,7234,-1760,-13030,-6577,1608,1090,-607,3,106,-155
3054,39,57,99,330,462,159,81,53,7243,-1733,-13023,-6588,1629,1109,-594,4,124,-132
3069,38,55,93,302,436,148,78,53,7256,-1706,-13015,-6596,1615,1112,-584,13,144,-112
3091,40,56,93,304,451,154,77,53,7266,-1685,-13007,-6605,1601,1099,-596,-8,123,-95
3114,40,56,99,279,455,151,74,52,7274,-1661,-13000,-6617,1594,1127,-591,-7,130,-109
3129,42,63,116,271,391,156,82,53,7281,-1634,-12995,-6626,1574,1124,-589,8,120,-116
3151,38,56,107,267,343,117,64,44,7285,-1607,-12992,-6634,1594,1144,-589,25,104,-124
3174,39,59,111,278,340,118,64,44,7285,-1583,-12990,-6643,1589,1156,-603,3,83,-116
3189,34,57,112,271,306,110,61,42,7282,-1572,-12988,-6654,1607,1168,-591,-30,30,-77
3211,31,58,100,253,283,106,60,41,7279,-1563,-12984,-6667,1601,1160,-584,-55,33,-72
3234,30,59,77,166,256,74,43,33,7271,-1554,-12981,-6684,1592,1171,-588,-67,16,-85
3249,30,62,71,135,169,71,41,31,7253,-1548,-12982,-6702,1574,1165,-580,-77,-53,-104
3271,30,58,63,84,60,41,27,21,7227,-1544,-12984,-6726,1569,1161,-606,-118,-74,-130
3294,31,57,59,67,55,36,28,18,7191,-1543,-12988,-6758,1517,1168,-585,-160,-128,-149
3309,30,51,60,49,45,29,23,17,7134,-1557,-13002,-6787,1504,1166,-625,-179,-271,-132
3331,28,50,56,40,40,28,22,16,7066,-1580,-13023,-6813,1512,1180,-593,-164,-381,-109
3354,28,53,58,32,33,23,22,17,7000,-1607,-13045,-6834,1539,1185,-564,-139,-405,-96
3369,22,49,51,25,32,22,22,20,6941,-1632,-13064,-6852,1590,1177,-554,-116,-383,-94
3391,26,49,51,25,29,17,22,19,6893,-1649,-13080,-6865,1610,1172,-532,-66,-323,-105
3414,27,49,49,22,27,19,22,20,6860,-1651,-13093,-6872,1593,1198,-533,-4,-222,-112
3436,26,50,58,22,24,19,21,20,6837,-1639,-13105,-6875,1585,1212,-553,52,-134,-133
3459,24,52,57,25,25,21,22,22,6818,-1621,-13116,-6879,1559,1216,-583,54,-81,-144
3474,26,56,58,27,24,24,27,21,6804,-1602,-13124,-6881,1532,1218,-597,50,-50,-127
3489,24,58,58,27,22,27,25,24,6788,-1586,-13131,-6887,1511,1220,-613,23,-44,-121
3511,25,65,64,28,22,27,24,24,6773,-1572,-13136,-6895,1511,1222,-618,3,-43,-117
3534,24,61,63,28,23,27,26,24,6760,-1559,-13139,-6905,1493,1212,-599,-8,-37,-106
3549,24,55,70,27,23,26,27,21,6749,-1546,-13142,-6913,1507,1223,-610,1,-25,-102
3571,25,54,81,28,24,25,21,21,6745,-1534,-13142,-6921,1484,1214,-594,-6,8,-81
3594,24,82,86,28,23,22,22,21,6747,-1524,-13138,-6928,1498,1208,-597,-12,37,-60
3616,24,88,95,28,23,22,21,21,6753,-1512,-13134,-6932,1507,1225,-621,4,66,-48
3631,34,103,102,29,26,22,19,24,6764,-1493,-13130,-6933,1538,1250,-593,40,92,-57
3654,35,115,99,30,27,22,18,24,6775,-1468,-13128,-6932,1515,1274,-615,75,111,-72
3676,34,117,93,27,25,22,20,24,6781,-1439,-13127,-6934,1500,1277,-623,56,100,-100
3693,33,108,109,27,25,24,19,22,6783,-1410,-13126,-6940,1502,1260,-609,44,82,-130
16,Repeat 4,,,,,,,,,,,,,,,,,
39,26,86,94,25,22,22,21,17,6780,-1348,-13128,-6950,1500,1241,-615,50,68,-159
54,27,82,101,25,20,22,20,18,6778,-1320,-13130,-6955,1491,1232,-618,41,56,-148
76,28,87,103,23,19,20,19,18,6777,-1297,-13132,-6957,1483,1237,-625,37,54,-116
99,27,77,83,23,20,19,21,20,6777,-1280,-13133,-6958,1486,1248,-610,33,41,-85
114,26,72,72,22,19,21,22,19,6774,-1267,-13135,-6960,1487,1256,-632,17,26,-71
136,27,71,79,22,18,19,21,20,6772,-1258,-13135,-6962,1489,1254,-626,5,17,-53
159,26,66,78,20,20,19,22,21,6768,-1254,-13137,-6964,1467,1263,-628,-9,-2,-31
174,25,62,79,20,23,21,22,21,6761,-1254,-13138,-6968,1458,1252,-622,-21,-22,-20
196,26,59,76,21,23,22,21,19,6754,-1256,-13140,-6972,1468,1250,-615,-30,-35,-20
219,23,66,79,20,23,19,18,22,6748,-1258,-13139,-6978,1481,1262,-606,-33,-28,-15
234,26,77,76,22,23,19,20,25,6747,-1262,-13138,-6981,1492,1266,-607,-30,-15,3
256,27,71,62,21,23,21,19,25,6748,-1269,-13134,-6985,1499,1271,-595,-32,-7,24
279,28,65,60,21,21,23,20,25,6749,-1275,-13132,-6988,1496,1267,-603,-34,-7,20
294,28,66,62,20,21,23,20,25,6752,-1279,-13126,-6995,1485,1289,-603,-45,18,17
316,27,61,62,20,28,25,21,22,6755,-1282,-13120,-7003,1489,1273,-595,-53,21,10
339,23,47,60,17,28,26,20,20,6757,-1282,-13117,-7007,1483,1273,-602,-28,18,-1
354,20,48,60,19,27,25,20,22,6758,-1282,-13114,-7011,1481,1266,-613,-27,18,-9
376,22,57,53,22,28,22,19,20,6760,-1281,-13112,-7014,1478,1255,-609,-22,23,-4
399,23,66,53,23,31,23,20,22,6760,-1281,-13112,-7014,1477,1266,-599,-1,9,7
414,26,64,51,25,28,27,22,23,6760,-1281,-13112,-7014,1477,1254,-605,3,7,13
436,26,68,50,30,35,29,23,22,6766,-1283,-13109,-7014,1477,1258,-579,-6,23,24
459,25,65,49,50,39,29,25,18,6774,-1287,-13103,-7015,1495,1265,-579,-20,35,35
474,27,58,56,69,65,40,26,25,6792,-1290,-13094,-7014,1510,1251,-575,-11,81,52
496,28,45,62,78,84,51,28,25,6820,-1290,-13082,-7009,1525,1263,-586,7,146,75
519,24,46,65,82,96,53,30,24,6851,-1291,-13071,-7000,1498,1247,-578,21,158,99
534,26,59,69,84,99,57,37,27,6883,-1286,-13059,-6991,1491,1251,-575,43,178,82
556,31,70,70,84,116,57,35,27,6914,-1283,-13050,-6979,1489,1229,-580,42,166,93
579,32,78,78,81,127,54,38,23,6943,-1280,-13042,-6965,1493,1238,-568,63,151,92
594,35,87,87,86,119,45,36,25,6978,-1272,-13033,-6949,1525,1253,-566,87,188,93
616,38,104,84,90,113,44,34,25,7004,-1264,-13026,-6936,1510,1260,-578,71,149,74
639,39,97,80,90,118,41,27,24,7021,-1259,-13023,-6926,1490,1270,-594,49,108,68
654,36,90,81,84,116,46,32,26,7033,-1253,-13019,-6922,1486,1247,-561,31,78,27
676,33,85,70,86,103,49,31,24,7037,-1243,-13018,-6921,1489,1248,-576,22,60,-17
699,29,76,51,83,99,51,31,21,7044,-1230,-13015,-6924,1505,1242,-569,9,73,-38
714,25,50,51,86,102,53,30,21,7047,-1228,-13014,-6922,1538,1234,-587,4,32,-5
736,24,43,57,95,114,56,31,22,7053,-1233,-13012,-6919,1517,1235,-559,0,16,45
759,26,44,62,111,118,59,29,21,7066,-1238,-13008,-6912,1545,1233,-552,13,50,68
774,24,37,56,130,115,56,27,23,7082,-1235,-13004,-6903,1514,1217,-567,36,92,48
796,33,64,69,149,158,98,46,29,7100,-1238,-13001,-6891,1534,1217,-557,43,75,79
819,35,65,73,161,167,109,50,32,7131,-1242,-12991,-6877,1527,1205,-537,46,144,128
834,37,72,89,181,190,133,65,38,7165,-1242,-12983,-6857,1549,1224,-558,81,167,127
856,48,95,130,206,245,178,89,54,7206,-1234,-12970,-6840,1566,1220,-525,88,213,104
879,55,103,148,210,300,203,104,66,7247,-1223,-12956,-6825,1573,1217,-531,78,232,89
901,51,91,142,209,398,189,100,65,7288,-1210,-12943,-6808,1560,1223,-569,84,252,90
917,52,96,144,226,424,189,102,66,7323,-1192,-12932,-6795,1555,1250,-537,95,226,65
939,54,94,140,224,423,182,100,64,7353,-1170,-12922,-6785,1504,1193,-526,84,215,15
961,48,72,108,210,393,147,85,57,7371,-1160,-12919,-6774,1547,1194,-560,57,126,30
977,49,97,112,225,382,153,85,54,7382,-1141,-12915,-6773,1528,1214,-509,51,103,-35
999,50,104,116,232,283,157,85,54,7387,-1118,-12916,-6768,1524,1211,-560,69,96,-64
1021,48,101,113,254,325,152,83,53,7378,-1106,-12922,-6769,1507,1202,-565,21,4,-61
1036,44,105,111,253,326,143,74,50,7360,-1114,-12931,-6769,1510,1196,-578,-25,-93,1
1059,43,114,122,275,346,141,72,48,7342,-1136,-12938,-6772,1552,1218,-532,-61,-141,53
1081,36,93,107,276,331,108,57,39,7330,-1154,-12941,-6776,1580,1221,-536,-64,-102,42
1096,39,88,105,303,360,106,59,41,7324,-1168,-12943,-6777,1587,1210,-489,-22,-83,38
1119,39,87,107,281,300,106,58,42,7323,-1171,-12946,-6772,1575,1215,-496,31,-36,23
1141,39,79,102,273,293,109,60,43,7324,-1168,-12948,-6768,1564,1210,-501,38,-10,2
1156,33,63,76,240,264,98,55,38,7323,-1163,-12950,-6765,1556,1205,-539,30,4,-15
1179,29,52,60,206,247,84,46,33,7319,-1159,-12953,-6765,1532,1200,-543,13,-7,-21
1201,27,48,72,211,228,102,57,38,7308,-1163,-12958,-6767,1497,1174,-535,-21,-58,-7
1216,30,50,71,206,212,108,58,38,7293,-1182,-12965,-6766,1517,1169,-562,-44,-112,53
1239,34,56,85,218,244,119,62,40,7285,-1205,-12967,-6767,1558,1204,-524,-56,-102,80
1261,39,62,103,233,272,141,74,48,7284,-1226,-12968,-6762,1596,1194,-519,-23,-71,91
1277,42,65,115,240,337,153,80,51,7289,-1238,-12969,-6753,1578,1198,-519,20,-19,83
1299,40,66,114,212,365,146,74,47,7294,-1246,-12972,-6741,1558,1201,-534,47,-15,82
1322,40,67,112,200,386,146,80,48,7301,-1252,-12971,-6732,1572,1206,-521,36,9,72
1336,44,69,119,212,496,163,92,62,7310,-1260,-12969,-6725,1560,1203,-523,19,16,84
1359,45,74,126,264,618,179,107,78,7323,-1270,-12966,-6714,1578,1188,-523,28,31,102
1381,52,81,134,287,641,186,109,86,7342,-1278,-12960,-6705,1563,1164,-505,19,64,100
1396,68,96,142,300,681,189,106,87,7353,-1293,-12959,-6691,1561,1160,-551,24,18,130
1419,72,100,148,336,730,199,102,86,7356,-1333,-12959,-6680,1532,1149,-586,-72,-59,219
1441,76,122,172,401,758,239,124,96,7355,-1393,-12960,-6668,1534,1138,-533,-96,-143,302
1456,80,139,173,467,790,235,111,81,7360,-1448,-12961,-6648,1570,1144,-522,-35,-120,313
1479,84,155,209,552,793,284,136,86,7380,-1488,-12951,-6636,1633,1170,-489,-43,-10,257
1502,80,162,225,615,874,324,163,108,7415,-1498,-12937,-6624,1666,1177,-475,41,120,165
1516,86,170,242,653,921,326,169,123,7465,-1487,-12915,-6612,1728,1188,-466,82,251,97
1539,92,170,247,704,1080,371,195,164,7509,-1462,-12896,-6603,1631,1181,-483,104,278,40
1561,106,183,284,769,1171,437,220,180,7518,-1452,-12904,-6581,1506,1120,-567,130,66,62
1577,107,180,288,776,1324,448,230,186,7526,-1464,-12903,-6570,1543,1127,-541,14,22,123
1599,110,182,298,804,1271,511,256,190,7536,-1487,-12900,-6559,1584,1085,-534,-21,5,157
1622,111,184,309,800,1282,536,265,208,7548,-1516,-12892,-6555,1638,1083,-551,-82,20,156
1637,104,175,301,825,1185,499,244,183,7558,-1546,-12885,-6552,1614,1051,-524,-84,-5,146
1659,98,164,318,826,1198,568,257,183,7566,-1571,-12887,-6533,1620,1001,-516,16,-37,139
1681,93,157,303,789,1041,559,245,174,7580,-1588,-12887,-6511,1692,1111,-512,65,2,152
1697,98,164,320,830,1231,560,233,164,7590,-1595,-12890,-6491,1669,1119,-526,86,9,110
1719,101,177,319,926,1282,593,253,152,7593,-1600,-12899,-6469,1600,1069,-573,90,-13,88
1742,106,193,325,950,1252,628,283,165,7593,-1604,-12908,-6450,1591,1098,-526,97,-34,85
1756,101,186,283,906,1181,557,267,161,7585,-1620,-12915,-6442,1660,1107,-543,7,-91,79
1779,108,195,296,881,1196,587,274,168,7586,-1636,-12918,-6431,1728,1087,-538,16,-59,86
1802,106,184,272,785,1067,548,264,176,7590,-1646,-12921,-6417,1683,1054,-552,39,-18,71
1825,152,236,385,831,1229,695,330,230,7588,-1651,-12932,-6396,1656,1043,-607,78,-34,54
1839,156,230,382,778,1298,698,324,222,7576,-1659,-12949,-6374,1626,1038,-601,89,-100,52
1861,159,241,404,737,1275,718,334,227,7563,-1675,-12967,-6348,1672,1047,-625,86,-131,89
1885,175,274,426,786,1307,745,362,244,7543,-1691,-12990,-6319,1668,1048,-626,108,-174,80
1899,182,290,443,811,1287,767,380,247,7522,-1698,-13020,-6283,1638,1035,-615,180,-191,60
1921,147,244,340,630,1124,617,316,190,7507,-1714,-13034,-6267,1675,1050,-546,63,-170,63
1945,141,239,330,639,1020,578,297,187,7495,-1731,-13046,-6251,1700,1026,-571,49,-145,64
1959,135,225,295,666,1031,553,284,190,7501,-1749,-13045,-6241,1726,1039,-521,20,-59,103
1981,154,232,330,792,1162,733,317,194,7508,-1768,-13042,-6235,1668,1029,-542,-9,-32,106
2004,152,227,337,779,1288,770,332,213,7515,-1785,-13037,-6230,1701,1056,-562,-14,-16,107
2019,156,233,355,780,1357,777,346,224,7516,-1797,-13038,-6224,1653,1031,-607,-7,-23,72
2041,178,264,412,785,1412,828,393,261,7516,-1806,-13039,-6219,1685,1039,-630,-8,-11,54
2064,185,283,445,796,1493,826,413,278,7519,-1806,-13042,-6210,1700,1044,-621,46,4,26
2079,155,240,387,654,1372,618,366,258,7509,-1810,-13054,-6195,1697,1051,-688,55,-62,29
2101,150,228,361,677,1266,572,353,243,7472,-1825,-13084,-6172,1637,1008,-708,74,-238,33
2124,153,241,366,812,1146,622,363,245,7420,-1845,-13123,-6145,1584,1015,-698,99,-350,39
2139,159,250,386,876,1153,695,382,234,7405,-1879,-13131,-6137,1677,948,-531,-25,-217,97
2161,162,253,411,973,1145,733,411,222,7403,-1916,-13123,-6145,1764,991,-554,-126,-114,112
2184,160,256,415,1005,1298,750,423,232,7423,-1927,-13110,-6146,1807,1020,-565,-30,44,64
2199,160,259,425,964,1293,759,434,230,7435,-1923,-13107,-6139,1721,1038,-628,47,55,20
2221,152,245,415,911,1351,726,417,221,7424,-1927,-13114,-6134,1602,1033,-683,11,-45,37
2244,149,230,389,940,1424,740,402,217,7416,-1931,-13122,-6126,1589,1023,-652,38,-50,40
2259,152,219,351,862,1370,715,355,240,7419,-1933,-13116,-6135,1656,1000,-602,-50,12,-2
2281,157,222,347,863,1329,704,336,234,7427,-1931,-13109,-6140,1744,989,-632,-30,52,-31
2304,177,243,380,917,1371,686,313,239,7429,-1929,-13110,-6137,1727,1005,-664,11,12,-17
2319,186,253,397,852,1413,727,329,244,7417,-1931,-13123,-6123,1632,994,-690,63,-72,14
2342,206,287,455,820,1342,787,378,259,7406,-1927,-13134,-6114,1594,1005,-661,60,-52,-9
2364,206,292,466,815,1383,816,390,228,7403,-1925,-13132,-6123,1687,1055,-636,-33,-4,-23
2379,198,282,457,784,1331,801,391,237,7407,-1909,-13127,-6133,1740,1020,-636,-11,52,-101
2401,179,256,419,776,1347,791,380,239,7414,-1884,-13127,-6134,1702,963,-618,53,70,-137
2424,177,240,403,815,1281,747,366,235,7413,-1869,-13126,-6141,1651,1027,-651,3,43,-81
2439,122,155,267,655,1259,517,245,182,7414,-1859,-13125,-6146,1655,1029,-663,-3,43,-47
2461,102,117,209,604,1143,446,211,170,7419,-1857,-13120,-6151,1660,975,-617,-30,39,-32
2484,108,126,224,587,1221,468,195,156,7417,-1861,-13116,-6161,1698,1023,-662,-74,5,-20
2499,101,116,206,526,1165,421,178,146,7418,-1860,-13114,-6164,1710,1024,-651,-22,13,-19
2521,75,100,164,529,1221,406,149,131,7417,-1860,-13114,-6164,1640,1028,-637,-9,-1,-7
2544,80,104,171,559,1318,432,176,137,7416,-1863,-13110,-6172,1631,1041,-625,-46,6,9
2559,88,116,211,571,1416,471,187,134,7415,-1864,-13108,-6178,1655,1017,-615,-33,-4,-18
2581,79,109,200,590,1360,464,218,131,7420,-1854,-13104,-6184,1682,1005,-592,-2,39,-59
2604,90,133,233,607,1357,483,243,146,7420,-1845,-13100,-6194,1660,1041,-622,-29,34,-61
2619,102,155,268,585,1313,510,268,171,7419,-1843,-13097,-6203,1659,1032,-648,-49,23,-32
2641,99,167,278,600,1244,490,260,169,7418,-1839,-13096,-6208,1634,1037,-638,-21,20,-23
2664,109,182,289,696,1208,511,286,182,7415,-1838,-13094,-6216,1647,1036,-617,-40,-1,-25
2679,111,183,292,697,1263,520,273,179,7409,-1841,-13091,-6228,1675,1051,-623,-68,-20,-28
2701,103,168,275,682,1242,520,257,151,7410,-1836,-13087,-6237,1695,1043,-593,-26,16,-51
2724,91,150,246,636,1181,451,224,117,7407,-1828,-13087,-6242,1646,1010,-632,-18,14,-65
2739,88,142,230,618,1083,432,209,109,7403,-1827,-13084,-6255,1635,1028,-624,-66,4,-46
2761,65,110,184,492,999,329,151,78,7397,-1830,-13080,-6270,1646,1053,-599,-85,-19,-29
2784,55,102,171,430,796,272,129,71,7392,-1830,-13075,-6285,1673,1059,-618,-81,-2,-45
2807,53,97,148,422,747,223,110,67,7380,-1826,-13075,-6300,1664,1056,-647,-72,-23,-86
2821,47,95,135,422,628,219,104,62,7359,-1809,-13084,-6311,1624,1049,-655,-16,-54,-154
2844,38,70,127,365,571,209,101,59,7323,-1795,-13097,-6330,1584,1057,-638,-48,-134,-185
2867,36,65,113,281,451,170,88,50,7292,-1778,-13102,-6360,1638,1086,-616,-98,-100,-216
2881,35,65,105,255,344,136,74,44,7283,-1760,-13097,-6386,1724,1098,-578,-77,-4,-181
2904,35,71,104,202,206,119,68,39,7297,-1744,-13076,-6416,1757,1089,-542,-109,114,-141
2927,36,73,102,161,180,105,64,35,7312,-1722,-13061,-6436,1707,1086,-553,-47,131,-133
2941,35,71,98,149,137,100,60,34,7324,-1686,-13051,-6453,1654,1106,-602,-4,165,-174
2964,27,78,63,110,107,60,39,27,7320,-1648,-13047,-6475,1594,1107,-639,-25,113,-221
2987,30,86,70,78,97,54,37,27,7300,-1617,-13051,-6498,1581,1125,-661,-47,16,-226
3001,27,82,69,68,87,52,34,28,7274,-1597,-13057,-6520,1561,1099,-596,-57,-62,-205
3024,26,83,77,47,71,43,27,25,7256,-1580,-13060,-6538,1603,1102,-626,-57,-28,-170
3047,29,97,77,44,78,35,25,22,7241,-1561,-13063,-6552,1619,1129,-592,-16,-32,-165
3061,30,91,78,40,79,32,22,23,7222,-1533,-13072,-6563,1597,1143,-572,37,-45,-197
3084,28,80,77,41,64,37,26,22,7199,-1500,-13082,-6575,1592,1149,-592,44,-55,-235
3107,28,78,76,41,64,35,28,19,7182,-1467,-13088,-6589,1604,1150,-589,22,-16,-234
3122,23,67,76,39,65,36,27,18,7177,-1433,-13088,-6602,1608,1166,-588,25,54,-201
3144,25,65,88,36,49,36,26,18,7173,-1400,-13088,-6613,1582,1178,-603,31,62,-182
3167,27,69,93,34,42,36,28,18,7168,-1368,-13089,-6623,1555,1180,-607,30,56,-173
3181,26,72,128,31,38,31,23,17,7160,-1336,-13091,-6635,1547,1176,-593,24,43,-187
3204,30,81,140,30,36,31,20,19,7155,-1300,-13091,-6648,1558,1184,-621,20,77,-206
3227,43,100,140,31,33,29,21,23,7155,-1260,-13085,-6667,1542,1217,-569,9,106,-205
3241,41,96,136,29,32,26,21,22,7156,-1211,-13083,-6680,1570,1222,-550,72,108,-245
3264,40,102,139,29,30,24,20,22,7157,-1149,-13083,-6689,1556,1220,-574,117,145,-294
3286,43,115,124,23,29,22,19,23,7161,-1079,-13079,-6703,1547,1244,-565,109,185,-330
3301,42,110,118,28,31,24,19,22,7168,-1001,-13075,-6717,1534,1265,-566,127,217,-354
3324,29,102,114,26,27,24,23,20,7168,-919,-13073,-6732,1506,1261,-573,136,201,-386
3346,28,98,109,26,30,26,22,21,7162,-838,-13074,-6748,1481,1247,-601,113,180,-408
3361,26,88,100,27,33,26,24,21,7150,-757,-13076,-6766,1469,1252,-597,107,151,-429
3384,22,67,73,29,33,27,23,21,7130,-675,-13078,-6791,1444,1274,-593,77,117,-460
3406,20,65,59,25,32,29,24,20,7104,-593,-13078,-6827,1454,1310,-595,28,97,-502
3429,22,57,64,25,36,30,20,18,7083,-509,-13070,-6869,1468,1292,-577,-14,134,-532
3444,26,76,73,27,37,31,22,17,7073,-433,-13062,-6900,1460,1261,-570,9,163,-468
3466,38,106,86,27,36,31,21,17,7070,-372,-13059,-6912,1436,1241,-590,58,149,-340
3481,40,123,115,30,36,31,22,16,7067,-332,-13061,-6914,1401,1250,-615,58,108,-211
3504,41,126,118,33,42,30,22,17,7070,-311,-13058,-6918,1368,1298,-607,2,101,-89
3526,45,136,133,35,41,30,23,19,7078,-309,-13051,-6923,1394,1291,-552,-41,61,-2
3541,58,135,133,36,38,28,22,20,7085,-315,-13046,-6925,1392,1325,-562,-44,43,49
3564,52,120,143,37,38,30,23,20,7092,-320,-13040,-6930,1412,1360,-540,-42,37,46
3586,59,110,125,36,38,29,25,19,7099,-313,-13032,-6937,1436,1397,-520,-13,57,-10
3601,65,109,121,37,31,28,23,25,7104,-290,-13025,-6945,1442,1413,-514,19,83,-82
3624,64,115,112,35,32,28,22,24,7105,-256,-13021,-6954,1438,1409,-524,45,92,-149
3647,50,112,107,33,34,29,21,26,7108,-217,-13014,-6965,1434,1406,-522,47,115,-176
3661,49,119,92,34,35,28,19,25,7113,-181,-13005,-6977,1409,1367,-534,11,133,-171
3684,43,130,100,38,38,31,17,26,7121,-155,-12995,-6989,1402,1334,-522,-16,122,-126
3706,34,130,110,37,42,31,18,22,7127,-138,-12988,-6997,1393,1322,-540,-24,96,-85
3729,36,117,112,45,43,29,23,21,7135,-126,-12979,-7005,1379,1370,-547,-38,102,-40
3744,39,116,119,46,45,32,24,20,7143,-116,-12972,-7011,1366,1379,-514,-14,80,-15
3766,41,108,122,47,45,29,24,20,7144,-105,-12967,-7019,1380,1402,-519,-19,56,-41
3789,38,100,110,44,40,26,23,19,7145,-90,-12961,-7028,1417,1410,-517,-15,54,-73
3804,39,99,107,44,37,29,24,20,7145,-70,-12956,-7039,1418,1423,-510,-6,57,-98
3826,39,102,120,40,37,31,23,26,7144,-50,-12950,-7050,1399,1404,-505,-12,57,-105
3849,37,111,122,42,33,28,22,29,7147,-32,-12941,-7063,1366,1385,-502,-32,86,-89
3864,38,128,116,39,35,30,23,28,7152,-16,-12933,-7074,1378,1369,-480,-25,72,-82
18,Repeat 5,,,,,,,,,,,,,,,,,
41,45,138,146,39,40,27,23,27,7160,13,-12921,-7087,1377,1388,-525,-9,72,-59
55,42,156,134,36,36,24,20,26,7164,25,-12916,-7091,1371,1393,-488,-1,62,-42
78,43,169,149,33,40,24,19,23,7164,35,-12914,-7096,1359,1416,-507,-3,37,-33
101,40,152,150,31,40,26,17,24,7161,40,-12911,-7104,1358,1425,-491,-24,11,-25
115,37,154,136,29,35,25,21,24,7157,42,-12908,-7113,1356,1418,-496,-42,4,-18
138,38,152,125,25,37,26,20,26,7154,43,-12906,-7120,1367,1398,-469,-26,-12,-19
161,38,144,141,26,39,26,21,21,7149,47,-12904,-7128,1359,1391,-466,-23,-14,-38
175,45,120,139,31,42,25,22,22,7147,52,-12903,-7133,1363,1373,-478,-13,3,-41
198,48,124,139,32,39,23,23,21,7149,59,-12900,-7136,1360,1389,-467,2,29,-24
221,47,116,147,34,40,22,19,20,7153,65,-12897,-7137,1383,1412,-485,5,40,-16
235,45,117,165,38,39,23,19,18,7157,72,-12894,-7139,1376,1425,-483,7,44,-7
258,45,104,169,41,45,31,21,19,7160,77,-12891,-7141,1348,1438,-481,-2,38,5
281,35,110,153,41,43,34,21,19,7162,82,-12888,-7144,1352,1424,-471,-1,26,-2
295,33,143,152,42,45,35,22,19,7164,85,-12884,-7150,1362,1414,-470,-23,22,-8
318,37,154,155,42,44,35,22,23,7165,87,-12881,-7154,1377,1416,-498,-25,22,-9
341,32,150,168,46,43,36,22,20,7168,88,-12878,-7156,1384,1415,-485,-14,29,4
355,32,157,148,43,37,31,22,20,7174,90,-12874,-7158,1379,1414,-475,-14,38,6
378,38,156,154,42,36,30,21,21,7180,91,-12870,-7159,1373,1418,-470,-9,37,16
401,37,123,157,43,35,30,21,22,7182,96,-12868,-7160,1364,1411,-473,8,27,-3
415,35,105,147,43,36,31,23,20,7183,99,-12866,-7162,1371,1407,-475,-7,23,-12
438,46,130,139,37,36,31,25,27,7183,100,-12866,-7162,1368,1402,-467,-16,11,-3
461,48,119,154,37,39,35,26,30,7186,100,-12865,-7161,1378,1413,-479,4,20,17
475,43,109,150,42,40,36,27,30,7192,100,-12864,-7157,1388,1408,-465,15,23,23
498,42,106,147,43,40,37,28,31,7198,100,-12861,-7156,1394,1416,-470,-1,30,21
521,41,114,146,43,42,38,28,32,7203,100,-12859,-7156,1391,1418,-471,-2,30,17
535,29,80,117,42,45,37,27,27,7208,99,-12856,-7156,1380,1400,-462,-7,24,19
558,26,101,100,45,40,32,28,25,7210,98,-12856,-7155,1378,1394,-474,0,10,16
581,28,106,99,40,40,31,29,27,7210,95,-12856,-7153,1381,1404,-487,-7,-2,20
595,31,115,120,35,40,28,26,24,7212,90,-12856,-7152,1398,1392,-460,-4,-9,27
618,34,116,124,37,38,29,26,24,7215,85,-12856,-7150,1385,1402,-475,-8,4,37
641,33,130,128,39,41,31,27,24,7220,80,-12854,-7148,1391,1412,-472,-7,17,42
655,36,119,139,39,39,31,25,27,7224,78,-12851,-7149,1400,1408,-457,-9,15,22
678,36,120,145,40,42,35,24,23,7224,78,-12851,-7149,1401,1402,-477,-11,9,14
701,41,130,133,47,42,40,29,23,7228,74,-12849,-7148,1394,1386,-458,-13,10,26
715,42,149,124,47,43,38,29,22,7232,71,-12849,-7145,1408,1397,-474,5,13,26
738,44,144,120,50,41,38,27,21,7236,70,-12847,-7143,1392,1393,-466,2,18,24
761,41,141,127,46,45,44,28,18,7238,67,-12847,-7142,1382,1395,-449,5,-1,23
775,39,134,126,51,46,41,27,21,7240,61,-12847,-7141,1375,1396,-451,-7,-13,42
798,33,118,128,48,48,38,24,20,7240,51,-12848,-7139,1369,1392,-455,-11,-27,60
821,27,92,134,47,47,37,24,19,7243,40,-12848,-7136,1370,1383,-446,-6,-16,74
844,29,89,138,46,45,36,24,20,7250,30,-12845,-7134,1369,1380,-440,-17,3,77
858,31,93,126,54,45,28,23,22,7256,20,-12844,-7130,1394,1380,-438,1,-4,70
881,36,98,120,52,42,26,23,21,7263,11,-12844,-7123,1406,1386,-456,11,9,77
903,35,97,111,50,39,24,21,21,7272,3,-12844,-7113,1409,1388,-454,28,15,83
918,37,92,121,49,38,22,21,20,7280,-5,-12845,-7103,1409,1398,-470,28,12,90
941,34,101,120,50,37,23,22,19,7287,-15,-12846,-7094,1403,1403,-476,14,11,99
963,36,104,115,49,44,26,24,20,7294,-28,-12845,-7088,1387,1392,-463,-3,6,106
986,32,104,128,45,42,26,24,18,7302,-41,-12844,-7083,1404,1369,-455,-7,2,95
1001,31,103,127,45,45,26,24,20,7309,-54,-12843,-7078,1403,1355,-447,-10,-1,92
1023,26,96,112,50,58,34,26,22,7318,-69,-12842,-7069,1422,1346,-447,6,-4,99
1038,30,89,105,62,81,51,30,26,7330,-86,-12841,-7057,1437,1334,-450,8,9,127
1061,25,81,98,58,85,52,31,24,7372,-107,-12828,-7037,1478,1335,-436,11,151,218
1084,24,82,86,65,101,55,31,25,7412,-123,-12819,-7011,1437,1341,-471,50,166,236
1098,25,83,101,69,102,55,30,26,7454,-138,-12810,-6985,1431,1327,-472,45,179,238
1121,28,99,104,69,100,59,31,26,7485,-157,-12803,-6963,1407,1326,-457,29,115,233
1144,24,86,103,57,101,52,28,24,7512,-178,-12798,-6943,1420,1332,-461,21,94,232
1158,25,81,100,80,158,57,29,25,7537,-202,-12794,-6921,1448,1310,-440,26,62,230
1181,27,76,90,96,185,57,32,28,7577,-224,-12782,-6899,1505,1296,-423,18,143,235
1204,31,80,88,156,242,90,48,37,7628,-245,-12768,-6868,1506,1290,-428,53,200,288
1218,43,75,110,172,295,121,60,47,7688,-273,-12752,-6831,1490,1243,-387,64,218,350
1241,47,75,114,184,303,125,62,46,7744,-302,-12745,-6779,1476,1298,-479,130,213,423
1264,48,81,111,178,281,124,63,46,7778,-334,-12745,-6738,1448,1298,-465,87,99,370
1278,48,78,109,220,451,123,62,45,7798,-375,-12746,-6710,1478,1281,-444,16,0,332
1301,68,108,155,307,636,243,118,71,7821,-422,-12743,-6688,1513,1254,-402,-23,-12,334
1324,74,118,172,347,703,296,145,89,7851,-469,-12734,-6665,1534,1226,-402,-34,36,344
1338,73,126,178,385,744,307,151,95,7888,-520,-12729,-6627,1609,1232,-452,16,58,405
1360,75,132,187,430,791,326,163,110,7916,-552,-12726,-6599,1625,1262,-431,37,51,288
1384,92,160,242,456,746,383,197,130,7922,-572,-12731,-6578,1594,1242,-441,49,-32,172
1398,93,156,231,413,666,366,192,128,7906,-593,-12748,-6564,1512,1206,-435,40,-155,116
1421,108,182,286,529,776,420,231,146,7880,-608,-12773,-6544,1554,1241,-436,105,-224,84
1444,121,198,296,558,992,440,238,153,7880,-619,-12781,-6529,1595,1184,-394,73,-72,82
1458,125,201,303,582,991,451,247,166,7895,-626,-12783,-6506,1644,1178,-415,97,23,106
1481,116,185,271,582,1010,420,230,160,7904,-646,-12787,-6485,1632,1176,-464,46,-24,149
1504,122,204,312,657,1012,448,248,171,7891,-681,-12800,-6471,1543,1162,-516,-31,-139,171
1518,138,255,347,706,1043,470,265,184,7865,-725,-12824,-6451,1483,1096,-502,-7,-252,190
1541,132,251,363,718,961,485,270,183,7865,-769,-12831,-6432,1607,1128,-474,-25,-118,226
1564,127,245,357,713,1023,481,264,164,7873,-809,-12827,-6425,1670,1146,-441,-73,-69,194
1578,129,247,367,745,1156,498,273,168,7874,-843,-12831,-6412,1652,1125,-456,-23,-93,164
1609,121,228,337,796,1288,497,259,156,7884,-865,-12833,-6392,1685,1111,-427,46,-45,134
1624,100,179,289,738,1242,533,246,147,7904,-874,-12823,-6386,1668,1143,-441,-6,77,91
1638,129,215,330,831,1308,688,310,207,7923,-890,-12812,-6383,1700,1107,-500,-62,78,88
1661,131,221,363,887,1408,730,326,218,7955,-894,-12796,-6375,1731,1105,-475,-8,168,74
1684,139,227,365,879,1322,732,327,236,7974,-904,-12794,-6354,1701,1053,-562,24,96,88
1706,153,244,399,841,1382,767,359,268,7967,-917,-12816,-6314,1599,1029,-595,136,-70,117
1721,147,231,383,804,1465,748,344,258,7946,-941,-12853,-6262,1584,1065,-609,194,-199,188
1744,133,203,354,822,1402,642,299,220,7931,-978,-12872,-6237,1641,1107,-519,34,-196,192
1766,144,226,349,828,1294,628,298,217,7912,-1020,-12883,-6232,1701,1140,-542,-82,-193,158
1781,145,235,362,837,1289,651,308,197,7896,-1054,-12890,-6233,1754,1132,-500,-82,-178,98
1804,132,223,321,849,1162,623,278,162,7882,-1069,-12897,-6233,1682,1094,-455,-17,-139,24
1826,123,204,299,858,1000,555,261,151,7873,-1078,-12901,-6234,1665,1082,-436,-1,-105,6
1841,118,200,295,800,1007,551,264,158,7869,-1083,-12902,-6236,1697,1085,-469,-8,-55,-13
1864,113,192,284,721,1091,534,259,181,7873,-1079,-12900,-6236,1683,1078,-465,13,7,-28
1886,102,173,259,694,1172,509,245,195,7871,-1075,-12903,-6233,1641,1082,-526,25,0,-17
1900,117,194,288,664,1161,565,270,209,7847,-1082,-12920,-6226,1605,1084,-609,8,-123,-2
1924,132,209,328,666,1343,717,312,219,7815,-1096,-12940,-6224,1585,1091,-577,-17,-195,7
1946,127,198,321,724,1318,719,303,212,7787,-1124,-12952,-6228,1631,1069,-549,-83,-207,40
1961,127,185,309,767,1226,735,307,213,7770,-1150,-12957,-6235,1712,1074,-544,-104,-144,29
1984,122,183,310,818,1276,737,299,193,7756,-1166,-12963,-6236,1692,1050,-520,-42,-125,1
2006,110,167,335,788,1369,752,313,194,7746,-1171,-12972,-6229,1655,1020,-527,26,-91,-20
2020,120,199,346,785,1319,718,323,210,7739,-1174,-12979,-6223,1654,1081,-543,27,-57,1
2044,122,201,328,679,1392,681,318,204,7736,-1175,-12983,-6219,1667,1108,-561,24,-26,8
2066,136,208,339,672,1510,683,319,241,7737,-1177,-12980,-6222,1659,1111,-549,-27,5,4
2080,143,214,348,601,1431,699,328,258,7729,-1178,-12983,-6227,1647,1120,-585,-30,-23,-11
2104,147,211,314,678,1405,730,329,254,7707,-1186,-12997,-6223,1593,1067,-621,-7,-119,-6
2126,145,199,314,661,1417,651,306,242,7692,-1196,-13005,-6223,1587,1105,-535,-9,-110,30
2140,149,215,332,701,1405,678,316,244,7679,-1208,-13009,-6228,1665,1104,-573,-54,-87,8
2164,134,211,331,782,1402,696,317,193,7677,-1216,-13008,-6232,1691,1075,-523,-37,-46,-5
2186,140,219,339,783,1449,723,333,199,7673,-1215,-13010,-6232,1668,1083,-567,2,-19,-29
2200,139,224,342,753,1382,653,310,190,7670,-1211,-13012,-6232,1630,1075,-559,11,-13,-28
2224,125,195,284,739,1250,611,274,177,7667,-1213,-13012,-6236,1596,1101,-561,-23,-9,5
2246,122,182,268,651,1167,587,272,193,7664,-1218,-13012,-6237,1662,1113,-568,-23,-20,11
2260,115,167,247,498,1130,522,253,184,7658,-1224,-13015,-6239,1635,1072,-561,-24,-47,-4
2284,102,144,210,533,1007,437,222,149,7649,-1232,-13018,-6242,1605,1077,-569,-39,-59,10
2306,86,120,167,470,992,339,175,131,7636,-1247,-13020,-6250,1631,1104,-579,-76,-86,22
2320,71,107,165,490,1002,331,171,124,7622,-1266,-13025,-6254,1646,1064,-587,-77,-102,22
2344,71,110,180,535,1130,384,177,101,7599,-1285,-13033,-6260,1614,1068,-611,-81,-142,13
2366,70,115,177,508,1151,393,178,99,7582,-1302,-13036,-6272,1598,1091,-547,-96,-121,13
2380,79,134,233,487,1125,419,193,115,7578,-1313,-13032,-6283,1677,1124,-530,-72,-47,11
2404,77,135,256,496,1128,430,216,120,7591,-1308,-13021,-6290,1704,1110,-510,-17,58,-20
2426,78,141,274,554,1122,474,231,122,7598,-1299,-13017,-6292,1644,1101,-539,14,54,-33
2440,71,136,268,675,1112,431,217,112,7598,-1290,-13017,-6294,1612,1110,-570,11,25,-35
2464,71,128,266,746,1045,410,206,102,7603,-1288,-13013,-6296,1595,1091,-549,-4,36,2
2486,74,123,237,752,1135,405,228,98,7601,-1298,-13008,-6307,1641,1104,-568,-88,-11,13
2500,73,114,210,759,1137,376,220,99,7607,-1305,-13001,-6313,1651,1042,-567,-72,31,4
2524,75,105,193,712,1128,331,247,114,7616,-1310,-12995,-6314,1662,1039,-567,-35,53,6
2546,73,110,183,594,951,289,251,112,7605,-1328,-12999,-6314,1606,1057,-615,-68,-73,47
2560,77,122,198,537,901,350,262,121,7589,-1357,-13006,-6313,1635,1089,-613,-79,-132,91
2584,66,119,208,480,811,338,231,116,7581,-1383,-13005,-6319,1657,1133,-562,-96,-89,94
2606,67,130,205,413,704,321,213,107,7581,-1402,-12995,-6337,1710,1131,-557,-144,-17,34
2620,62,129,194,400,698,305,159,86,7583,-1393,-12985,-6356,1695,1122,-525,-74,44,-85
2644,55,115,182,345,713,303,130,78,7579,-1360,-12981,-6376,1648,1097,-550,-14,69,-212
2666,51,101,161,278,601,224,106,64,7567,-1321,-12981,-6398,1631,1080,-560,-10,44,-274
2689,44,80,101,277,583,171,82,48,7569,-1275,-12974,-6421,1672,1129,-526,10,121,-268
2703,41,67,84,262,556,161,75,44,7577,-1235,-12961,-6444,1688,1128,-524,-18,149,-235
2726,41,70,85,216,464,151,71,43,7586,-1200,-12950,-6462,1650,1118,-543,-18,149,-196
2749,41,68,77,201,365,120,61,39,7592,-1171,-12939,-6482,1609,1109,-534,-44,133,-177
2763,36,70,112,181,329,97,47,31,7598,-1151,-12925,-6508,1619,1103,-522,-96,118,-160
2786,35,79,113,153,232,64,37,26,7609,-1132,-12905,-6537,1640,1118,-533,-129,159,-152
2809,29,74,120,141,148,46,29,24,7616,-1109,-12884,-6574,1602,1177,-556,-165,175,-166
2823,28,71,148,124,125,46,29,24,7611,-1088,-12870,-6611,1586,1200,-537,-147,93,-177
2846,28,69,174,70,98,42,27,25,7600,-1061,-12860,-6646,1585,1211,-474,-105,43,-213
2869,29,73,163,63,73,35,23,23,7587,-1026,-12856,-6674,1603,1196,-495,-43,43,-252
2883,25,76,163,41,63,34,23,23,7576,-989,-12855,-6695,1601,1152,-432,7,17,-270
2906,30,130,189,34,58,35,26,19,7564,-943,-12858,-6709,1598,1167,-481,57,44,-289
2929,31,164,179,34,52,35,25,20,7559,-893,-12860,-6717,1572,1183,-482,94,91,-266
2943,29,171,161,36,47,37,28,22,7552,-839,-12866,-6722,1554,1225,-497,126,82,-264
2966,29,170,149,32,44,32,28,21,7538,-780,-12871,-6735,1588,1259,-499,103,65,-321
2989,30,170,158,32,41,33,28,19,7519,-713,-12877,-6752,1566,1272,-511,101,68,-377
3003,25,142,150,31,33,30,24,20,7502,-648,-12879,-6774,1535,1266,-485,73,73,-381
3026,28,114,144,33,25,26,23,19,7484,-592,-12880,-6797,1519,1253,-503,36,60,-343
3049,27,107,137,29,22,23,18,14,7466,-548,-12880,-6819,1509,1251,-510,-1,39,-300
3063,25,107,138,30,22,23,19,15,7450,-512,-12879,-6842,1508,1244,-496,-23,24,-265
3086,24,100,126,32,22,21,20,18,7435,-485,-12877,-6863,1502,1247,-529,-50,23,-222
3109,30,88,90,41,32,23,26,23,7423,-467,-12873,-6885,1495,1257,-511,-78,16,-177
3123,29,97,82,41,35,30,28,24,7413,-455,-12867,-6909,1475,1281,-483,-98,9,-135
3146,31,96,94,47,35,30,29,25,7404,-440,-12862,-6929,1468,1296,-491,-67,16,-132
3169,35,103,90,49,35,30,28,24,7394,-419,-12860,-6945,1469,1310,-486,-29,23,-151
3183,37,102,89,47,35,31,28,22,7383,-391,-12855,-6967,1451,1342,-468,-32,36,-183
3206,35,101,109,38,29,31,23,22,7371,-358,-12849,-6993,1448,1369,-456,-34,39,-210
3229,34,89,110,40,30,27,21,21,7357,-324,-12843,-7020,1452,1360,-457,-46,37,-233
3243,39,94,110,37,30,26,22,22,7350,-291,-12833,-7046,1451,1323,-449,-52,69,-226
3266,38,87,115,37,33,26,23,23,7343,-259,-12825,-7071,1428,1348,-454,-46,67,-208
3289,39,92,116,37,34,26,20,23,7335,-230,-12817,-7094,1428,1336,-460,-51,61,-205
3303,38,108,128,36,32,24,20,20,7325,-202,-12810,-7117,1428,1353,-442,-49,41,-200
3326,38,103,130,30,30,21,20,20,7309,-176,-12807,-7139,1401,1367,-451,-33,7,-192
3348,31,96,126,27,29,24,18,19,7288,-157,-12807,-7162,1382,1381,-467,-61,-33,-174
3363,29,101,131,30,30,23,17,21,7266,-144,-12804,-7190,1391,1376,-434,-94,-60,-167
3386,29,113,156,44,29,22,18,21,7246,-137,-12799,-7218,1414,1380,-448,-118,-54,-151
3409,26,107,138,49,30,22,18,19,7235,-129,-12792,-7242,1410,1374,-429,-101,-17,-120
3423,26,105,133,49,29,22,18,20,7230,-119,-12782,-7266,1424,1395,-423,-98,19,-125
3446,25,102,140,48,31,20,19,20,7225,-102,-12771,-7289,1413,1403,-420,-76,42,-142
3468,25,94,138,47,26,22,20,20,7221,-82,-12761,-7312,1395,1419,-424,-72,54,-142
2,Repeat 6,,,,,,,,,,,,,,,,,
25,20,50,105,30,25,20,20,21,7209,-51,-12742,-7356,1368,1430,-437,-95,32,-109
48,21,49,118,34,28,20,20,22,7202,-48,-12733,-7379,1357,1406,-423,-118,5,-78
62,21,50,122,35,26,19,19,20,7194,-52,-12724,-7403,1360,1385,-407,-135,-22,-62
85,20,83,132,38,26,18,20,19,7190,-58,-12713,-7424,1340,1371,-397,-135,-7,-36
108,20,90,135,40,24,19,19,18,7189,-69,-12702,-7445,1337,1378,-377,-135,-13,-1
122,22,95,133,38,28,23,22,19,7190,-82,-12694,-7457,1337,1368,-370,-96,-18,22
145,21,95,132,36,26,24,22,18,7190,-96,-12688,-7466,1355,1389,-374,-82,-29,45
175,25,97,128,39,28,24,23,21,7191,-107,-12685,-7471,1345,1425,-369,-39,-23,54
190,25,77,111,36,27,24,21,22,7190,-115,-12684,-7474,1368,1445,-381,-27,-30,45
205,24,71,113,33,28,25,21,21,7188,-121,-12680,-7482,1364,1447,-374,-43,-21,18
228,24,71,132,38,24,21,19,20,7186,-125,-12675,-7493,1383,1444,-363,-57,-18,-4
250,24,73,122,37,25,21,18,19,7185,-122,-12669,-7503,1368,1453,-364,-36,4,-18
265,19,69,107,30,23,23,18,17,7183,-121,-12664,-7514,1388,1442,-365,-40,-4,-31
288,22,70,140,33,24,23,18,18,7180,-117,-12659,-7525,1374,1442,-364,-40,1,-37
310,25,73,140,37,25,21,18,19,7180,-114,-12655,-7531,1372,1428,-364,-22,9,-25
325,24,84,124,30,24,21,17,20,7179,-112,-12654,-7535,1358,1413,-390,-15,3,-17
348,25,93,132,33,25,24,17,20,7176,-112,-12653,-7540,1353,1409,-396,-28,-4,-12
370,25,98,139,41,29,24,17,23,7175,-114,-12651,-7544,1347,1408,-396,-30,-1,-2
385,25,96,108,40,31,28,21,25,7171,-117,-12651,-7548,1355,1424,-405,-35,-14,1
408,23,101,105,40,32,29,23,26,7169,-120,-12649,-7553,1362,1431,-390,-33,-12,4
430,24,89,112,43,33,30,23,28,7167,-125,-12647,-7557,1381,1434,-389,-34,-17,8
445,27,80,106,43,32,28,25,27,7164,-129,-12648,-7559,1367,1442,-381,-14,-24,17
468,28,90,119,40,34,31,24,24,7161,-129,-12649,-7560,1371,1440,-373,9,-23,0
490,28,102,130,45,35,28,20,24,7156,-127,-12651,-7563,1374,1462,-384,3,-24,-19
505,27,97,126,42,36,28,20,23,7153,-118,-12652,-7563,1358,1455,-352,38,-3,-28
528,25,95,114,39,34,28,21,23,7151,-108,-12654,-7562,1380,1421,-373,39,0,-51
550,21,97,109,38,34,27,19,23,7149,-97,-12656,-7561,1371,1409,-376,42,11,-58
566,26,89,120,35,29,23,20,27,7149,-88,-12657,-7559,1375,1407,-388,33,21,-45
588,26,76,113,29,27,23,20,24,7151,-82,-12658,-7555,1358,1422,-388,33,22,-6
610,29,72,110,31,24,21,18,26,7154,-82,-12660,-7549,1358,1431,-403,28,11,26
625,28,71,114,30,25,21,17,23,7152,-86,-12662,-7548,1347,1447,-397,-2,-18,29
648,30,67,128,35,28,24,19,23,7147,-92,-12665,-7547,1355,1436,-394,-4,-41,28
670,31,101,115,34,27,23,18,20,7143,-101,-12667,-7548,1370,1421,-403,-22,-48,25
685,30,100,107,34,29,22,20,20,7143,-106,-12667,-7547,1350,1437,-395,-7,-13,36
708,28,103,121,30,31,25,20,18,7143,-106,-12667,-7547,1388,1418,-382,5,-6,11
730,28,110,133,31,37,29,20,21,7146,-102,-12667,-7545,1381,1429,-383,24,19,-6
745,29,118,127,33,39,29,19,21,7149,-98,-12669,-7538,1389,1425,-416,36,22,-2
768,26,85,119,34,40,32,19,20,7149,-95,-12672,-7533,1379,1435,-426,25,11,2
790,27,82,122,33,39,32,17,20,7148,-95,-12673,-7533,1354,1433,-427,15,8,13
805,27,85,145,39,42,31,19,22,7146,-99,-12675,-7532,1368,1401,-418,-12,-18,8
828,26,76,141,44,40,30,19,19,7143,-106,-12676,-7532,1364,1404,-404,-14,-31,17
850,27,101,141,39,37,28,18,22,7142,-116,-12678,-7531,1375,1396,-394,-20,-38,33
865,22,110,140,38,36,29,18,23,7142,-127,-12679,-7528,1386,1416,-398,-10,-30,50
888,22,110,143,39,37,30,20,23,7147,-134,-12680,-7522,1386,1424,-410,3,-1,54
910,24,111,106,34,32,28,18,21,7149,-140,-12680,-7519,1393,1425,-404,1,-2,35
925,27,122,102,33,28,25,21,24,7153,-140,-12679,-7517,1390,1430,-389,9,13,18
948,25,94,111,32,32,24,22,22,7156,-138,-12679,-7515,1372,1426,-385,21,10,9
970,28,90,110,33,35,23,22,20,7159,-137,-12678,-7512,1384,1419,-391,19,16,7
985,28,95,103,33,34,22,23,21,7159,-137,-12679,-7512,1394,1420,-408,7,11,12
1008,26,91,106,35,34,23,22,22,7159,-137,-12679,-7512,1388,1410,-400,7,8,7
1030,24,84,102,38,35,23,19,19,7162,-139,-12680,-7508,1389,1405,-416,8,6,17
1045,24,94,95,38,32,23,18,18,7164,-144,-12680,-7504,1386,1402,-409,-1,-3,29
1068,20,90,88,38,31,21,19,17,7164,-151,-12682,-7501,1372,1406,-417,-5,-15,39
1090,23,95,97,49,38,23,17,20,7164,-160,-12684,-7497,1386,1409,-421,-10,-21,47
1113,26,98,96,64,40,26,19,22,7168,-169,-12683,-7495,1393,1422,-413,-18,-4,56
1128,30,97,118,63,40,27,20,23,7177,-178,-12681,-7490,1411,1412,-391,0,13,68
1150,27,84,106,64,39,27,22,23,7186,-184,-12679,-7484,1412,1418,-405,3,33,58
1173,29,102,112,66,41,36,30,27,7198,-189,-12675,-7479,1416,1409,-396,3,42,58
1188,27,107,128,60,36,35,30,24,7209,-193,-12672,-7473,1405,1398,-404,6,48,54
1210,30,103,128,46,31,31,29,23,7218,-197,-12671,-7468,1391,1394,-397,9,29,49
1233,27,103,112,42,34,30,28,23,7222,-198,-12672,-7461,1390,1404,-397,30,10,36
1248,28,106,128,41,35,32,30,23,7225,-195,-12673,-7456,1392,1411,-407,31,24,17
1270,26,92,131,44,44,23,21,22,7229,-194,-12674,-7452,1392,1391,-385,26,12,16
1293,33,96,115,44,47,26,23,23,7233,-196,-12674,-7448,1385,1388,-383,18,7,28
1308,28,92,118,44,47,26,23,21,7240,-201,-12673,-7442,1390,1377,-386,10,16,53
1330,27,91,113,45,45,26,25,20,7247,-207,-12673,-7436,1397,1385,-402,10,20,54
1353,27,89,97,45,46,25,23,22,7253,-213,-12672,-7431,1410,1395,-403,4,13,54
1368,30,89,105,44,40,21,23,20,7257,-218,-12673,-7425,1422,1409,-394,15,1,49
1390,24,68,107,44,41,23,22,21,7262,-220,-12673,-7419,1426,1423,-401,27,12,43
1413,27,73,100,48,44,26,25,22,7268,-220,-12673,-7414,1422,1426,-393,27,23,33
1428,26,87,113,47,45,26,25,22,7269,-216,-12674,-7412,1419,1415,-399,23,10,2
1450,26,99,126,47,43,25,23,19,7269,-213,-12676,-7409,1402,1392,-393,24,-1,-6
1473,24,110,124,45,40,29,24,19,7267,-211,-12678,-7407,1384,1381,-394,24,-10,-2
1488,23,120,119,43,32,26,24,18,7266,-213,-12682,-7402,1382,1376,-388,27,-19,20
1510,21,121,120,41,34,24,22,16,7264,-218,-12687,-7395,1383,1381,-402,30,-31,44
1533,24,106,105,47,35,25,22,16,7262,-225,-12692,-7388,1406,1386,-406,26,-40,47
1548,27,98,89,53,38,29,23,20,7261,-231,-12696,-7380,1414,1405,-417,27,-26,46
1570,28,88,99,59,52,31,23,19,7263,-239,-12699,-7374,1400,1400,-396,20,-25,66
1593,28,81,107,65,66,31,23,20,7270,-248,-12698,-7368,1402,1380,-387,11,3,82
1607,27,75,105,80,69,33,23,19,7286,-259,-12694,-7359,1412,1376,-388,8,47,110
1630,25,74,105,97,99,52,29,25,7311,-270,-12687,-7347,1421,1360,-362,24,79,139
1653,23,68,102,133,108,67,40,27,7359,-286,-12672,-7325,1458,1351,-366,31,186,232
1667,21,60,76,192,168,74,47,33,7415,-305,-12654,-7297,1447,1350,-348,49,222,292
1690,23,56,68,225,273,105,55,38,7485,-315,-12632,-7263,1431,1344,-358,87,324,312
1713,38,75,90,251,403,146,74,49,7548,-327,-12613,-7230,1404,1311,-349,74,279,309
1727,44,93,118,290,467,184,94,58,7604,-343,-12599,-7196,1413,1331,-389,75,250,321
1750,52,101,127,295,490,193,97,61,7643,-367,-12593,-7164,1411,1307,-376,59,131,306
1773,54,101,130,277,481,194,99,61,7664,-399,-12597,-7133,1458,1324,-396,50,7,290
1787,56,104,132,254,453,202,104,63,7673,-436,-12602,-7112,1476,1310,-380,7,-60,248
1810,51,97,132,275,410,208,107,64,7677,-473,-12606,-7098,1467,1284,-357,-16,-87,217
1833,51,91,121,240,400,199,101,58,7683,-508,-12612,-7077,1493,1279,-392,4,-73,225
1847,54,94,129,251,395,213,110,64,7688,-549,-12617,-7061,1519,1260,-391,-31,-92,218
1871,57,97,140,259,463,235,118,68,7688,-594,-12623,-7045,1569,1273,-381,-32,-134,223
1893,60,95,142,297,596,225,114,67,7692,-628,-12626,-7032,1609,1295,-371,-17,-87,172
1907,58,89,132,275,559,204,101,62,7691,-657,-12633,-7020,1571,1283,-389,-6,-102,153
1930,61,93,158,379,561,209,106,69,7687,-680,-12643,-7004,1556,1253,-419,20,-93,122
1953,62,96,176,422,701,229,111,76,7688,-697,-12651,-6987,1537,1232,-395,51,-65,110
1968,64,97,179,559,909,216,108,100,7689,-712,-12664,-6961,1554,1206,-429,90,-59,113
1991,63,98,178,586,858,225,124,111,7686,-726,-12682,-6930,1594,1219,-457,119,-87,105
2013,65,103,181,608,1004,242,133,114,7677,-744,-12705,-6895,1587,1245,-471,139,-132,131
2027,64,96,172,621,1030,246,133,116,7670,-761,-12728,-6859,1548,1253,-450,160,-132,155
2050,62,88,149,610,1075,237,129,115,7667,-782,-12747,-6823,1561,1199,-451,136,-119,164
2073,71,99,174,569,947,270,149,108,7655,-803,-12764,-6804,1521,1221,-433,65,-150,122
2096,77,110,192,583,1060,302,152,112,7638,-831,-12785,-6780,1504,1175,-446,76,-199,141
2111,87,130,226,628,1047,327,169,123,7639,-862,-12793,-6759,1619,1202,-419,40,-112,169
2133,104,153,254,647,1098,353,182,135,7644,-889,-12801,-6735,1591,1144,-410,64,-98,158
2156,101,152,252,632,1001,347,181,137,7648,-919,-12810,-6709,1578,1164,-441,58,-92,197
2171,98,150,243,642,1037,332,176,159,7655,-941,-12819,-6680,1583,1197,-468,96,-56,188
2193,118,177,277,634,969,415,230,190,7652,-963,-12836,-6649,1600,1181,-503,107,-107,156
2216,111,163,250,598,996,386,219,182,7653,-989,-12844,-6629,1630,1175,-476,40,-90,158
2231,102,151,226,560,1113,402,228,179,7660,-1008,-12846,-6613,1692,1176,-498,21,-29,109
2253,125,180,259,589,1239,454,255,186,7659,-1025,-12857,-6591,1647,1123,-544,52,-62,88
2276,123,180,250,536,1212,458,257,165,7653,-1049,-12875,-6559,1595,1106,-556,91,-113,147
2290,105,152,216,574,1356,402,218,125,7637,-1074,-12903,-6518,1551,1089,-569,144,-184,160
2313,120,170,245,651,1310,445,240,147,7619,-1091,-12935,-6471,1574,1136,-555,215,-197,153
2336,128,186,267,639,1203,473,252,166,7599,-1109,-12964,-6435,1650,1144,-593,153,-200,110
2350,108,167,249,648,1146,448,240,169,7569,-1136,-12992,-6409,1626,1124,-578,80,-263,95
2373,115,179,272,654,1136,469,245,170,7538,-1166,-13016,-6392,1618,1157,-551,45,-274,108
2396,117,174,263,625,978,458,239,169,7522,-1195,-13036,-6365,1634,1106,-543,85,-213,136
2411,123,190,324,602,969,530,287,200,7516,-1228,-13051,-6335,1651,1070,-526,88,-177,178
2433,115,173,315,580,1017,504,275,189,7511,-1259,-13066,-6304,1630,1078,-551,93,-154,181
2456,117,176,310,610,946,491,268,179,7506,-1282,-13080,-6275,1634,1134,-556,111,-139,167
2471,124,191,342,674,1050,523,280,189,7512,-1298,-13086,-6252,1650,1110,-576,85,-43,135
2501,119,192,343,700,1171,547,278,190,7522,-1310,-13086,-6238,1644,1093,-601,30,12,106
2516,98,161,266,729,1248,465,211,144,7533,-1323,-13084,-6226,1660,1063,-631,6,37,91
2530,98,162,260,784,1218,440,195,130,7534,-1344,-13091,-6205,1590,1016,-681,16,-29,128
2553,100,162,267,802,1278,445,201,136,7532,-1367,-13103,-6178,1581,1051,-667,62,-60,168
2576,80,127,203,807,1237,377,166,121,7528,-1393,-13111,-6159,1607,1086,-664,21,-73,166
2590,90,144,221,812,1272,374,188,152,7525,-1420,-13118,-6142,1673,1072,-672,-2,-72,149
2613,109,176,270,772,1231,463,230,171,7521,-1440,-13123,-6132,1678,1082,-638,-1,-73,103
2636,129,201,323,828,1284,606,292,202,7504,-1459,-13137,-6118,1642,1092,-666,29,-140,91
2650,131,193,320,782,1365,615,289,203,7485,-1477,-13152,-6104,1664,1089,-675,26,-152,77
2673,138,200,344,778,1342,651,307,222,7463,-1491,-13169,-6090,1642,1059,-654,49,-168,45
2696,144,211,360,771,1254,660,307,221,7453,-1498,-13179,-6081,1695,1048,-624,43,-109,9
2710,141,224,367,783,1206,636,307,217,7439,-1506,-13191,-6070,1670,1010,-640,35,-122,0
2733,129,211,316,698,1094,506,250,190,7417,-1520,-13208,-6055,1618,1001,-677,44,-163,30
2756,125,216,326,731,1216,584,260,188,7401,-1534,-13225,-6034,1633,995,-671,75,-148,54
2770,122,212,295,667,1273,559,243,168,7391,-1551,-13234,-6023,1598,1025,-635,22,-112,82
2793,111,194,269,643,1163,535,238,155,7383,-1581,-13235,-6023,1677,1061,-644,-72,-116,120
2816,95,152,215,578,1215,514,216,137,7380,-1608,-13240,-6009,1672,1002,-685,-8,-91,123
2830,108,168,270,621,1324,654,269,166,7374,-1628,-13252,-5985,1618,1000,-657,83,-114,128
2853,111,163,259,620,1107,566,253,165,7364,-1651,-13264,-5963,1612,991,-626,68,-154,123
2876,106,159,286,714,1099,580,264,203,7360,-1678,-13264,-5961,1685,1071,-679,-52,-84,132
2890,112,167,295,694,1211,610,267,205,7366,-1697,-13259,-5959,1750,1056,-646,-30,-30,94
2913,126,182,323,702,1207,666,287,214,7368,-1697,-13260,-5953,1715,1043,-676,39,-13,12
2936,105,148,278,637,1246,543,238,194,7362,-1690,-13265,-5952,1654,1043,-711,23,-14,-36
2958,95,140,265,581,1169,540,234,185,7342,-1679,-13278,-5952,1630,1037,-761,25,-66,-84
2973,100,137,238,451,1104,511,217,141,7316,-1675,-13292,-5954,1640,1022,-739,1,-125,-87
2996,114,157,287,482,1171,618,266,157,7294,-1673,-13300,-5964,1625,1009,-716,-46,-103,-85
3018,111,154,272,477,1216,587,245,151,7276,-1682,-13306,-5968,1642,942,-687,-49,-118,-50
3033,126,184,306,522,1147,625,271,162,7270,-1698,-13307,-5969,1708,989,-689,-52,-78,22
3056,137,207,349,543,1332,695,308,185,7277,-1710,-13303,-5967,1696,979,-681,-26,-7,38
3078,153,242,424,682,1448,837,361,197,7287,-1713,-13299,-5962,1657,1001,-678,11,33,34
3093,138,230,404,713,1460,767,328,171,7306,-1716,-13287,-5966,1656,1011,-635,-28,84,45
3116,136,222,399,725,1427,730,321,173,7321,-1726,-13275,-5969,1701,1014,-695,-55,72,53
3138,128,211,381,714,1332,687,305,163,7333,-1727,-13272,-5962,1682,1052,-744,23,75,56
3153,130,212,360,712,1192,640,281,140,7327,-1723,-13283,-5946,1624,1015,-788,73,-15,12
3176,108,173,263,573,1090,436,203,108,7304,-1721,-13299,-5940,1569,1031,-778,33,-94,-24
3198,105,155,217,511,943,353,180,109,7275,-1717,-13316,-5937,1651,1010,-717,35,-166,-87
3213,98,154,212,565,1023,365,179,94,7260,-1720,-13320,-5946,1700,1006,-666,-40,-108,-69
3236,85,132,188,506,1074,354,162,87,7256,-1725,-13317,-5957,1722,1007,-683,-70,-43,-41
3258,64,106,150,467,1038,295,131,78,7257,-1726,-13312,-5965,1687,1017,-703,-50,12,-26
3273,60,99,151,460,937,275,127,79,7251,-1729,-13310,-5976,1640,1024,-732,-74,-11,-28
3296,60,109,155,439,851,272,128,75,7226,-1736,-13316,-5992,1580,1027,-755,-107,-104,-51
3318,52,102,117,298,592,203,101,64,7190,-1736,-13326,-6013,1559,1041,-721,-95,-158,-107
3333,50,98,107,286,457,159,86,59,7167,-1732,-13329,-6036,1662,1066,-732,-106,-89,-126
3356,43,84,107,263,388,157,84,57,7149,-1732,-13325,-6066,1673,1059,-724,-158,-58,-119
3378,40,77,103,204,338,147,80,54,7142,-1731,-13312,-6102,1701,1057,-669,-179,-11,-122
3393,29,56,74,140,257,95,51,35,7140,-1723,-13297,-6140,1672,1049,-662,-181,43,-147
3416,31,70,80,136,189,64,37,24,7147,-1705,-13275,-6184,1650,1064,-638,-184,116,-171
3438,32,71,78,134,159,62,35,23,7154,-1684,-13255,-6223,1628,1073,-653,-158,134,-169
3452,33,71,72,130,144,59,34,23,7168,-1657,-13238,-6250,1665,1086,-692,-93,176,-168
3476,32,76,77,120,132,52,31,22,7192,-1626,-13218,-6275,1683,1086,-642,-59,221,-161
3498,32,80,70,104,123,44,27,21,7225,-1583,-13194,-6298,1661,1082,-639,-31,296,-186
3512,26,61,69,58,60,32,22,18,7259,-1531,-13170,-6322,1629,1102,-631,-14,335,-217
3536,24,60,70,54,54,28,22,21,7288,-1470,-13148,-6349,1636,1125,-655,-9,334,-270
3558,24,67,94,49,49,33,30,22,7309,-1405,-13128,-6380,1621,1133,-680,-30,326,-314
3572,27,87,123,45,45,34,29,20,7318,-1344,-13113,-6414,1587,1130,-667,-48,253,-329
3596,26,88,144,45,38,37,30,20,7324,-1291,-13103,-6439,1586,1115,-656,-25,210,-294
3618,24,89,142,43,39,37,30,19,7331,-1243,-13092,-6463,1566,1137,-605,-12,185,-253
3632,26,89,146,38,39,37,28,17,7335,-1193,-13086,-6479,1593,1133,-557,45,131,-268
3656,26,85,134,38,39,29,19,16,7337,-1137,-13082,-6495,1581,1161,-572,63,147,-290
3678,24,82,125,37,38,26,20,17,7340,-1082,-13076,-6514,1567,1170,-551,49,147,-284
3692,30,87,122,30,27,21,17,18,7346,-1028,-13068,-6531,1551,1169,-548,49,164,-269
3716,32,88,131,32,25,21,16,17,7353,-977,-13060,-6546,1524,1196,-553,52,168,-237
3738,30,96,134,32,24,19,18,20,7356,-932,-13055,-6560,1536,1190,-571,36,135,-223
3752,30,96,144,32,27,20,18,21,7359,-888,-13048,-6578,1547,1206,-564,14,138,-232
3776,29,79,125,30,29,21,18,21,7357,-847,-13041,-6597,1527,1221,-570,-2,114,-226
3798,24,71,115,31,30,20,17,19,7356,-811,-13034,-6619,1511,1215,-572,-30,110,-208
3821,24,76,105,35,30,22,18,21,7355,-782,-13027,-6636,1497,1202,-550,-26,89,-172
3836,24,76,110,35,32,21,17,20,7353,-754,-13022,-6651,1488,1238,-559,-7,82,-147
3858,24,81,106,32,29,21,17,19,7351,-730,-13016,-6668,1519,1246,-530,-24,64,-147
3872,27,87,125,39,28,22,16,19,7354,-701,-13007,-6686,1558,1285,-531,-25,97,-161
3896,28,107,120,38,28,24,19,21,7364,-665,-12991,-6709,1576,1298,-497,-27,150,-189
3918,26,113,128,37,27,22,18,21,7378,-617,-12974,-6731,1600,1292,-519,-7,203,-247
3941,27,108,129,37,28,25,20,19,7396,-559,-12955,-6754,1546,1299,-505,15,257,-264
3956,30,121,129,38,28,26,21,18,7415,-498,-12935,-6776,1502,1310,-498,18,275,-267
3978,31,119,112,32,28,24,22,17,7428,-437,-12915,-6803,1467,1297,-495,-3,259,-284
4001,29,105,112,33,26,21,20,15,7439,-378,-12896,-6831,1451,1295,-499,-19,247,-289
4015,29,98,109,31,28,22,21,17,7446,-324,-12878,-6860,1452,1289,-518,-46,224,-287
4038,30,117,111,32,28,21,20,18,7449,-282,-12862,-6888,1449,1278,-520,-76,177,-249
4068,27,119,106,33,29,22,19,19,7448,-252,-12850,-6913,1436,1278,-534,-89,129,-194
4075,23,120,130,35,28,24,19,21,7447,-235,-12839,-6935,1418,1292,-503,-96,86,-131
4,Repeat 7,,,,,,,,,,,,,,,,,
27,27,118,135,33,28,23,19,19,7432,-222,-12825,-6977,1431,1310,-479,-107,-2,-89
42,25,107,130,32,28,27,20,19,7419,-223,-12821,-6999,1416,1334,-477,-116,-32,-64
64,25,98,126,31,28,26,21,18,7406,-227,-12816,-7021,1420,1347,-436,-116,-61,-50
87,22,103,104,31,28,23,20,16,7393,-235,-12810,-7045,1453,1360,-410,-118,-72,-45
102,24,110,99,40,37,27,20,17,7386,-242,-12803,-7066,1465,1373,-404,-108,-51,-30
124,25,109,88,40,36,27,20,17,7386,-244,-12792,-7085,1478,1410,-368,-80,-6,-21
147,24,102,81,41,37,25,19,18,7393,-238,-12779,-7101,1472,1446,-344,-37,35,-15
162,23,95,84,51,45,28,18,17,7402,-230,-12766,-7116,1488,1444,-360,-39,63,-25
184,24,82,79,56,50,29,18,19,7417,-214,-12746,-7137,1496,1463,-353,-57,118,-55
207,24,70,78,51,45,28,20,21,7435,-191,-12721,-7163,1509,1441,-371,-86,175,-108
221,20,88,87,55,52,33,25,21,7454,-159,-12691,-7196,1479,1389,-360,-116,215,-178
252,24,91,89,54,50,40,30,23,7478,-120,-12661,-7227,1443,1337,-386,-109,275,-198
267,26,90,91,47,46,39,31,23,7500,-78,-12637,-7246,1370,1319,-385,-41,266,-173
281,27,98,98,46,45,40,31,23,7513,-46,-12618,-7266,1368,1300,-420,-75,209,-163
304,34,102,99,44,45,39,30,23,7525,-22,-12601,-7283,1352,1267,-428,-85,185,-131
327,35,102,99,40,38,37,27,22,7533,2,-12590,-7292,1295,1307,-428,-34,160,-85
349,33,108,114,44,39,27,21,20,7532,19,-12588,-7299,1303,1275,-430,-29,79,-88
364,34,109,119,48,43,28,19,20,7526,34,-12583,-7312,1319,1332,-418,-54,55,-95
387,33,106,114,43,40,26,19,20,7522,37,-12580,-7322,1344,1315,-369,-55,9,-53
401,28,102,140,46,42,26,21,20,7513,33,-12581,-7328,1400,1319,-376,-43,-44,-42
424,27,89,143,50,47,27,20,22,7508,31,-12583,-7331,1407,1419,-341,-2,-41,2
447,28,73,128,46,45,28,22,21,7513,32,-12579,-7334,1437,1506,-283,17,1,41
461,26,68,117,41,40,26,20,22,7524,35,-12568,-7340,1484,1545,-292,-3,51,34
484,25,69,117,42,38,26,23,22,7543,49,-12550,-7351,1525,1589,-296,-19,129,-7
507,30,90,101,35,36,25,20,20,7553,72,-12537,-7363,1495,1573,-320,-1,115,-67
521,29,114,104,33,29,20,20,18,7553,101,-12529,-7376,1438,1494,-354,5,98,-134
544,29,147,113,35,33,19,19,19,7540,130,-12524,-7398,1337,1415,-376,-43,46,-182
567,27,151,120,42,37,21,20,19,7516,152,-12525,-7419,1275,1352,-384,-51,-19,-188
589,28,160,148,49,40,24,18,20,7490,160,-12529,-7440,1307,1283,-398,-93,-72,-171
604,29,149,163,52,42,23,19,20,7470,151,-12530,-7458,1331,1211,-388,-137,-90,-118
627,28,130,159,50,41,23,20,20,7462,129,-12530,-7467,1327,1163,-426,-150,-58,-23
641,29,101,159,50,38,25,20,21,7464,95,-12529,-7466,1377,1168,-399,-131,-55,70
664,30,123,167,47,30,21,18,23,7474,61,-12531,-7455,1379,1263,-387,-67,-31,150
687,29,123,148,39,27,19,18,22,7490,24,-12530,-7439,1369,1413,-342,-26,-17,254
701,21,134,130,40,30,22,21,23,7506,-10,-12529,-7424,1381,1538,-315,-5,-23,295
725,21,133,130,42,29,23,20,25,7513,-38,-12529,-7418,1413,1608,-313,-10,-55,236
747,21,130,149,43,30,24,20,22,7505,-52,-12530,-7425,1456,1615,-324,-37,-84,97
761,22,125,144,40,32,25,20,21,7486,-56,-12529,-7445,1459,1572,-365,-89,-83,-32
784,21,120,141,38,32,25,19,21,7462,-55,-12527,-7472,1419,1485,-356,-118,-90,-104
807,24,106,126,34,26,22,17,20,7436,-58,-12525,-7502,1381,1394,-322,-140,-118,-127
829,23,108,123,30,26,22,19,19,7412,-68,-12523,-7529,1356,1338,-321,-145,-123,-97
844,21,109,123,28,29,20,20,19,7394,-86,-12522,-7549,1369,1319,-322,-134,-127,-41
867,22,88,121,27,25,21,20,21,7383,-109,-12521,-7560,1384,1352,-302,-102,-117,25
889,22,76,123,30,25,25,21,23,7380,-134,-12521,-7561,1385,1374,-257,-38,-108,91
904,18,76,122,32,27,24,21,23,7386,-156,-12521,-7556,1431,1382,-294,-21,-49,105
927,20,80,131,32,28,22,19,22,7396,-169,-12516,-7554,1440,1405,-304,-22,5,74
949,22,72,94,32,29,23,20,22,7407,-173,-12510,-7554,1444,1431,-312,-12,36,45
965,22,77,126,37,36,22,19,19,7424,-178,-12501,-7551,1420,1438,-325,-12,28,55
986,23,84,128,37,42,21,19,17,7431,-180,-12496,-7553,1409,1460,-320,-19,31,49
1009,24,91,139,42,40,23,20,17,7436,-180,-12494,-7552,1429,1434,-307,11,17,26
1025,23,87,129,41,41,29,24,21,7433,-176,-12494,-7554,1392,1414,-326,6,-2,-18
1046,26,118,231,47,39,31,25,21,7429,-173,-12494,-7559,1393,1382,-325,-14,-7,-32
1069,29,133,236,50,37,36,26,21,7432,-168,-12491,-7560,1407,1388,-281,17,13,-18
1085,29,126,231,50,35,35,26,21,7437,-161,-12490,-7557,1448,1380,-306,34,33,-32
1106,28,124,227,47,37,35,25,23,7446,-152,-12487,-7555,1454,1381,-313,28,59,-34
1129,28,127,239,48,35,30,21,20,7452,-141,-12485,-7552,1425,1386,-337,29,60,-31
1146,24,105,192,43,35,28,19,22,7456,-134,-12485,-7547,1404,1388,-328,37,37,-10
1166,20,82,168,36,30,22,19,20,7457,-132,-12487,-7544,1391,1388,-327,18,5,5
1189,25,102,171,34,24,20,20,21,7456,-135,-12486,-7546,1410,1397,-334,-20,-4,3
1205,26,104,180,32,22,20,19,18,7453,-136,-12485,-7550,1425,1412,-355,-31,-5,-10
1228,28,105,172,36,21,22,20,18,7448,-136,-12486,-7554,1430,1413,-345,-21,-18,-26
