time,emg0,emg1,emg2,emg3,emg4,emg5,emg6,emg7,quat0,quat1,quat2,quat3,acc0,acc1,acc2,gyro0,gyro2,gyro2
33951,19,27,22,21,19,21,28,96,5513,-3170,-12623,-8287,1465,1335,-529,38,24,-22
33965,18,30,21,21,20,21,33,91,5515,-3160,-12624,-8288,1440,1339,-521,29,33,-28
33995,19,29,22,19,21,20,34,98,5516,-3151,-12626,-8287,1450,1330,-545,19,29,-32
34010,18,27,20,18,19,23,34,85,5517,-3146,-12628,-8286,1433,1312,-540,19,18,-17
34026,19,29,20,19,18,22,36,87,5517,-3146,-12628,-8285,1425,1292,-549,9,7,-13
34056,16,29,21,21,19,24,36,94,5517,-3146,-12631,-8281,1443,1283,-541,16,-9,-9
34070,17,31,21,21,18,24,31,83,5517,-3146,-12631,-8281,1460,1319,-535,13,-8,-2
34092,17,30,20,21,16,24,28,77,5517,-3146,-12631,-8281,1449,1318,-532,-1,-6,8
34107,18,32,20,23,15,22,26,77,5517,-3146,-12631,-8281,1460,1320,-544,0,-4,13
34130,19,29,19,22,18,25,23,84,5517,-3147,-12631,-8281,1465,1322,-534,11,-1,3
34145,21,28,18,21,19,23,26,104,5519,-3145,-12632,-8279,1463,1324,-531,19,4,-4
34167,24,24,18,21,19,23,28,106,5519,-3145,-12632,-8279,1460,1322,-539,11,-2,-9
34198,24,27,17,19,20,23,29,106,5519,-3145,-12632,-8278,1470,1314,-539,1,-1,-6
34205,24,24,18,18,20,24,28,125,5519,-3145,-12632,-8278,1462,1325,-551,1,0,-5
34229,23,28,19,20,20,22,33,124,5519,-3145,-12633,-8278,1454,1325,-542,2,1,4
34250,24,31,18,17,21,23,30,97,5519,-3145,-12633,-8278,1440,1319,-541,6,-6,7
34266,22,31,19,17,21,24,28,89,5519,-3145,-12633,-8278,1446,1324,-525,5,-4,1
34287,20,28,22,19,22,28,31,90,5519,-3145,-12632,-8278,1447,1308,-525,2,6,-4
34310,20,28,20,19,25,31,40,95,5519,-3145,-12633,-8278,1438,1308,-541,-2,12,-8
34340,22,29,20,20,24,30,36,95,5519,-3145,-12633,-8278,1443,1294,-539,-6,6,-2
34347,21,26,23,21,24,29,37,116,5519,-3146,-12633,-8278,1458,1299,-525,-2,10,13
34370,20,33,22,24,23,31,43,123,5524,-3148,-12630,-8277,1468,1320,-537,-6,19,24
34385,20,34,23,24,22,27,44,123,5529,-3151,-12627,-8278,1466,1328,-547,-15,20,22
34409,21,34,23,23,19,22,38,104,5532,-3152,-12624,-8280,1472,1337,-533,-16,18,17
34430,19,30,25,22,19,23,40,108,5535,-3152,-12622,-8280,1474,1345,-542,-5,18,12
34446,20,35,23,26,20,24,41,93,5537,-3151,-12622,-8280,1455,1324,-550,-3,17,0
34467,20,29,22,26,19,36,42,89,5536,-3148,-12622,-8281,1437,1323,-555,-4,16,-9
34490,22,34,23,24,20,38,39,87,5535,-3148,-12623,-8280,1439,1309,-562,-12,10,1
34514,23,35,23,24,23,40,37,98,5535,-3152,-12622,-8281,1430,1295,-547,-23,-3,15
34527,24,34,21,27,24,39,38,95,5534,-3158,-12621,-8281,1429,1290,-546,-27,-8,18
34550,22,28,20,26,24,39,39,96,5533,-3163,-12619,-8282,1438,1296,-541,-23,-8,18
34565,24,32,21,24,24,28,34,113,5534,-3169,-12618,-8282,1438,1295,-528,-18,-11,26
34589,23,33,20,24,24,29,34,116,5535,-3177,-12617,-8278,1454,1290,-535,-6,-21,40
34618,21,35,22,24,22,27,35,104,5536,-3187,-12617,-8275,1454,1311,-532,-6,-26,47
34625,18,38,22,21,21,27,32,99,5538,-3195,-12614,-8274,1465,1327,-517,-12,-18,51
34648,20,39,22,20,21,27,28,92,5541,-3202,-12611,-8275,1492,1338,-526,-15,-5,41
34670,18,35,22,21,22,25,24,65,5545,-3204,-12608,-8275,1495,1346,-531,-5,11,23
34685,16,32,20,22,20,27,28,78,5549,-3202,-12608,-8273,1484,1347,-552,14,23,10
34707,19,29,18,24,23,28,31,81,5552,-3199,-12609,-8271,1476,1327,-546,17,25,-2
34730,20,29,19,25,23,28,30,93,5552,-3199,-12609,-8271,1457,1318,-549,13,14,-9
34753,19,28,21,25,23,28,35,95,5551,-3199,-12610,-8271,1451,1304,-550,-8,0,-14
34767,19,30,20,23,22,27,40,111,5548,-3202,-12610,-8271,1450,1292,-546,-18,-17,-2
34790,20,26,21,23,23,24,36,102,5545,-3207,-12609,-8272,1445,1284,-531,-23,-20,8
34812,19,26,22,19,21,22,33,99,5543,-3212,-12609,-8273,1448,1289,-529,-19,-23,10
34836,18,24,21,19,24,21,33,89,5542,-3216,-12608,-8273,1459,1306,-527,-12,-17,13
34850,18,24,20,21,23,20,29,97,5542,-3216,-12608,-8273,1487,1320,-538,-5,-4,5
34872,20,27,19,22,24,21,27,119,5542,-3216,-12608,-8273,1468,1321,-537,4,-4,6
34887,20,26,20,22,24,19,31,129,5542,-3216,-12608,-8273,1456,1302,-537,3,-9,4
34910,17,27,19,24,24,21,33,128,5542,-3216,-12608,-8273,1457,1292,-534,5,-16,-1
34932,17,27,19,23,22,23,35,131,5542,-3216,-12608,-8273,1465,1309,-531,-1,-16,2
34947,18,26,18,20,21,23,37,132,5542,-3216,-12608,-8273,1472,1317,-533,-9,-13,11
34970,17,21,20,19,20,25,33,107,5543,-3220,-12608,-8270,1478,1306,-535,1,-12,17
34992,17,24,18,18,22,24,31,96,5543,-3221,-12610,-8266,1473,1314,-532,22,-14,9
35007,18,29,19,17,21,22,30,95,5541,-3221,-12614,-8262,1460,1321,-541,25,-19,3
35030,20,28,20,18,20,21,31,89,5538,-3223,-12616,-8259,1465,1303,-545,9,-19,-2
35061,18,28,20,18,22,23,32,103,5536,-3227,-12618,-8256,1463,1284,-559,-3,-21,5
35067,20,30,18,20,21,21,33,97,5535,-3232,-12620,-8252,1466,1287,-547,7,-22,17
35100,21,29,20,20,21,27,33,92,5536,-3237,-12622,-8248,1470,1299,-545,11,-20,25
35112,21,23,20,21,22,27,34,97,5534,-3241,-12624,-8244,1456,1307,-548,10,-24,18
35128,20,26,20,19,23,27,31,97,5530,-3243,-12627,-8242,1467,1323,-554,10,-22,5
35150,21,26,20,21,21,25,34,102,5528,-3245,-12628,-8240,1480,1311,-553,3,-22,-2
35172,21,24,22,20,23,26,33,99,5525,-3247,-12630,-8238,1474,1297,-554,2,-23,-4
35187,20,27,21,21,22,22,35,104,5523,-3250,-12633,-8235,1462,1290,-543,11,-23,3
35210,21,27,20,23,22,21,36,110,5520,-3253,-12635,-8232,1455,1293,-559,4,-25,10
35233,25,25,21,23,20,21,42,135,5515,-3259,-12637,-8230,1460,1304,-558,-6,-36,14
35247,25,26,21,21,20,24,44,117,5512,-3265,-12637,-8228,1467,1301,-550,-10,-36,16
35271,23,30,21,21,18,23,44,118,5509,-3271,-12639,-8226,1466,1293,-555,-6,-33,11
35316,22,26,21,23,17,21,43,116,5505,-3274,-12640,-8225,1467,1308,-557,1,-27,9
35318,22,26,21,21,16,24,41,108,5501,-3278,-12642,-8223,1476,1322,-560,-4,-31,10
35338,18,25,19,22,19,25,36,73,5495,-3284,-12643,-8224,1479,1320,-569,-20,-38,3
35352,17,27,19,21,20,23,35,103,5489,-3288,-12645,-8224,1471,1303,-575,-18,-40,-3
35367,18,24,20,27,24,24,33,98,5481,-3293,-12646,-8224,1465,1298,-570,-22,-41,-8
35390,17,25,20,26,24,37,38,96,5475,-3297,-12647,-8225,1473,1303,-567,-22,-41,-6
35412,17,24,23,25,23,36,36,93,5469,-3301,-12647,-8229,1471,1310,-551,-27,-32,-7
35427,18,27,25,28,21,36,34,91,5462,-3305,-12645,-8234,1455,1309,-551,-43,-31,-7
35450,19,26,27,29,21,38,30,95,5457,-3311,-12642,-8239,1463,1286,-554,-49,-35,-4
35472,21,27,25,25,21,37,36,114,5453,-3318,-12641,-8241,1455,1277,-549,-32,-33,6
35487,21,34,25,23,21,27,30,115,5449,-3325,-12640,-8243,1440,1271,-558,-34,-28,14
35510,22,33,24,23,23,26,31,116,5444,-3337,-12638,-8244,1436,1249,-567,-49,-45,24
35532,23,31,22,21,25,25,31,123,5440,-3351,-12636,-8244,1448,1265,-551,-41,-52,40
35547,22,33,19,21,25,21,32,91,5436,-3365,-12634,-8244,1459,1276,-545,-35,-58,45
35570,21,33,21,22,25,24,25,60,5433,-3381,-12632,-8243,1477,1276,-554,-38,-57,46
35592,22,27,21,23,26,23,24,57,5434,-3396,-12629,-8240,1493,1297,-554,-24,-46,68
35607,20,29,22,23,24,32,24,54,5436,-3411,-12624,-8240,1472,1313,-529,-24,-37,77
35630,18,33,23,23,25,46,26,32,5437,-3423,-12621,-8240,1462,1297,-523,-17,-36,63
35652,19,31,22,23,24,49,25,24,5443,-3430,-12620,-8234,1457,1249,-487,33,-27,49
35667,22,32,26,31,39,126,69,24,5456,-3432,-12622,-8221,1477,1251,-495,89,8,48
35690,23,33,29,34,46,141,95,30,5480,-3428,-12623,-8205,1507,1258,-510,124,66,57
35712,29,34,36,42,58,156,123,61,5511,-3416,-12626,-8186,1521,1287,-523,160,118,55
35735,28,35,36,42,61,155,126,63,5547,-3394,-12629,-8166,1500,1310,-535,189,174,46
35750,28,38,37,43,63,159,129,65,5587,-3365,-12628,-8151,1528,1340,-535,182,225,27
35772,26,39,33,39,58,118,113,65,5637,-3330,-12622,-8140,1571,1328,-535,165,292,7
35795,25,37,32,36,53,105,95,63,5693,-3285,-12610,-8139,1562,1364,-546,134,382,-6
35810,20,39,21,28,40,80,58,36,5755,-3238,-12589,-8147,1560,1352,-531,77,439,-14
35834,19,35,23,28,36,82,57,33,5823,-3187,-12557,-8167,1547,1300,-514,3,515,-34
35855,18,31,30,27,35,72,49,30,5899,-3128,-12520,-8192,1570,1300,-493,-6,582,-62
35871,16,33,110,33,50,57,46,29,5985,-3053,-12481,-8218,1613,1336,-513,9,690,-105
35901,17,38,189,78,75,62,43,28,6087,-2958,-12426,-8261,1713,1398,-550,-59,881,-170
35915,21,44,204,85,79,62,39,27,6242,-2836,-12328,-8334,1829,1465,-552,-216,1313,-165
35937,33,54,206,142,142,100,53,34,6425,-2687,-12194,-8442,1765,1572,-516,-351,1600,-199
35952,38,68,224,212,239,138,72,45,6619,-2528,-12041,-8559,1668,1471,-367,-411,1719,-214
35976,52,79,205,313,374,175,91,54,6805,-2379,-11887,-8671,1550,1283,-197,-413,1647,-198
35990,58,82,165,385,422,194,101,58,6999,-2253,-11745,-8743,1496,1148,-141,-271,1547,-41
36014,60,80,149,405,503,206,106,59,7163,-2119,-11653,-8767,1502,1194,-137,57,1318,-74
36051,56,77,152,392,541,204,106,60,7314,-1925,-11595,-8764,1440,1212,-53,419,1323,-279
36053,57,73,129,371,521,191,100,54,7442,-1710,-11553,-8756,1344,1221,-73,515,1268,-403
36089,60,96,157,323,562,240,119,68,7548,-1498,-11513,-8758,1299,1272,-66,451,1176,-457
36095,88,134,214,317,699,355,174,102,7627,-1317,-11461,-8786,1276,1259,5,235,1001,-485
36119,89,134,222,328,794,367,181,105,7702,-1169,-11400,-8821,1355,1341,-38,74,944,-388
36132,90,135,226,391,780,375,185,106,7753,-1039,-11338,-8872,1357,1466,-50,-74,818,-393
36156,90,145,260,389,796,378,185,109,7783,-940,-11268,-8945,1262,1417,-26,-264,672,-386
36195,83,149,308,384,777,343,170,99,7796,-873,-11202,-9023,1262,1370,37,-355,480,-355
36197,51,119,268,379,670,216,111,65,7833,-801,-11134,-9082,1373,1392,106,-244,574,-294
36233,54,123,267,410,512,206,105,65,7889,-691,-11064,-9128,1477,1503,260,-50,724,-346
36234,62,131,293,412,546,218,113,70,7937,-552,-10993,-9181,1446,1507,256,-16,798,-506
36263,61,119,303,444,536,235,125,70,7986,-404,-10919,-9235,1428,1479,251,-16,851,-554
36300,64,126,246,467,506,246,133,74,8028,-241,-10851,-9284,1341,1472,249,55,861,-606
36302,62,132,246,453,507,263,139,75,8071,-74,-10788,-9323,1213,1466,287,129,850,-556
36336,63,137,254,452,575,275,144,78,8119,87,-10719,-9361,1214,1524,223,59,898,-507
36338,59,133,226,474,641,269,138,73,8169,238,-10646,-9398,1209,1506,285,36,870,-481
36375,59,136,175,451,623,246,125,69,8210,394,-10577,-9435,1161,1535,271,51,857,-509
36377,63,111,173,421,608,254,129,75,8235,535,-10511,-9480,1085,1501,238,-23,745,-527
36404,66,110,223,404,637,250,126,75,8256,631,-10457,-9515,1020,1438,251,-75,549,-346
36410,70,134,292,399,592,256,134,80,8286,723,-10404,-9541,1033,1530,289,-45,565,-265
36442,72,137,313,383,512,300,153,87,8315,804,-10348,-9569,986,1490,307,-87,526,-235
36471,77,144,331,433,592,337,166,93,8340,874,-10299,-9594,1034,1529,371,-69,447,-216
36473,83,159,336,463,711,360,175,97,8363,950,-10256,-9614,1070,1542,383,-17,446,-246
36508,90,176,322,510,676,381,188,103,8381,1017,-10224,-9626,1029,1510,351,19,383,-200
36546,87,156,253,503,707,385,185,100,8394,1063,-10206,-9628,949,1454,366,52,244,-99
36571,82,159,234,511,794,341,167,93,8402,1096,-10202,-9621,923,1537,354,74,152,-3
36575,81,151,281,504,825,331,165,94,8402,1110,-10204,-9618,918,1591,327,14,46,47
36585,86,150,293,532,746,346,174,102,8391,1098,-10211,-9621,954,1597,336,-60,-88,67
36605,86,147,286,527,813,359,172,107,8379,1071,-10203,-9643,966,1586,431,-175,-135,58
36612,94,154,294,521,783,377,186,115,8363,1039,-10201,-9663,996,1549,421,-161,-175,36
36637,108,173,310,608,743,433,208,132,8350,1007,-10202,-9676,1015,1560,511,-93,-191,70
36650,109,175,260,614,807,439,209,133,8350,986,-10198,-9682,1054,1560,497,-64,-92,78
36674,103,176,243,605,795,434,207,128,8354,972,-10193,-9685,1062,1575,476,-51,-41,76
36712,100,170,252,686,741,406,199,121,8368,966,-10186,-9682,1053,1563,439,-30,41,96
36719,92,164,245,686,840,388,187,114,8383,959,-10174,-9683,1053,1591,460,-61,47,103
36742,80,146,224,654,880,357,174,101,8390,961,-10160,-9691,1053,1614,471,-65,54,30
36755,79,151,220,652,800,360,184,105,8388,963,-10150,-9703,1057,1580,444,-72,16,-18
36785,76,135,232,696,864,331,168,99,8381,963,-10149,-9709,1073,1567,406,-38,-16,-27
36792,88,167,251,641,937,404,200,117,8375,967,-10147,-9716,1055,1538,449,-14,-15,-38
36825,94,181,260,678,888,424,210,122,8377,968,-10149,-9713,1062,1555,434,14,1,28
36862,89,173,251,611,830,396,196,114,8383,967,-10142,-9715,1038,1591,440,-36,31,54
36864,92,170,252,587,785,411,201,120,8384,964,-10135,-9721,1020,1543,436,-58,3,25
36885,86,166,230,567,765,405,198,116,8379,960,-10133,-9728,1056,1559,433,-49,-32,-2
36929,72,129,209,534,657,328,160,98,8368,965,-10131,-9739,1040,1569,448,-29,-26,-53
36931,58,105,196,486,592,280,138,84,8363,962,-10131,-9743,1051,1517,458,-12,-36,-11
36950,70,106,199,627,667,335,163,96,8359,957,-10132,-9746,1035,1568,438,-25,-42,25
36957,77,112,196,666,663,367,175,101,8348,952,-10138,-9750,1017,1554,417,-18,-76,5
36996,78,114,193,653,610,372,175,104,8336,944,-10147,-9752,1073,1562,440,1,-94,-2
36998,84,124,191,729,674,398,196,113,8326,943,-10152,-9756,1079,1584,442,2,-59,-20
37019,90,126,183,745,774,405,198,116,8313,941,-10160,-9759,1065,1556,441,14,-78,-30
37032,83,130,188,652,714,371,181,108,8298,944,-10172,-9759,1066,1577,414,42,-74,-37
37057,71,122,179,642,843,307,152,91,8282,945,-10178,-9766,1052,1591,432,2,-76,-50
37101,71,123,180,638,859,296,152,91,8269,943,-10181,-9774,1025,1554,456,-12,-83,-35
37103,60,103,133,527,828,249,119,72,8261,937,-10180,-9782,1052,1563,464,-33,-59,-9
37125,52,98,133,583,739,226,113,68,8256,929,-10178,-9790,1087,1560,452,-44,-49,-14
37137,52,91,125,548,701,225,118,69,8248,929,-10179,-9795,1052,1552,424,-18,-38,-25
37169,67,98,127,498,552,264,139,76,8239,929,-10184,-9797,1020,1538,383,-6,-37,-11
37207,67,95,123,464,476,255,133,71,8224,913,-10197,-9798,960,1512,366,-22,-139,46
37208,66,88,117,446,395,250,129,69,8206,881,-10219,-9793,973,1513,328,-26,-219,112
37236,66,87,112,299,356,244,125,68,8182,827,-10245,-9790,974,1512,361,-65,-333,165
37238,61,83,100,260,289,219,111,61,8153,759,-10274,-9790,1015,1507,351,-106,-405,177
37275,33,57,75,245,198,109,57,36,8109,681,-10315,-9789,995,1499,334,-90,-521,179
37304,25,48,69,151,144,68,36,28,8047,582,-10377,-9781,923,1468,297,-51,-719,244
37306,27,45,66,103,113,53,35,26,7970,444,-10462,-9760,930,1421,334,-8,-976,364
37317,26,42,62,76,89,52,34,22,7892,279,-10553,-9732,1030,1365,405,12,-1112,427
37410,27,46,74,61,69,46,31,21,7823,103,-10644,-9693,1119,1325,366,17,-1101,491
37545,27,62,90,52,68,42,28,23,7769,-83,-10738,-9633,1173,1324,304,61,-1077,620
37547,28,73,99,47,59,41,28,22,7740,-260,-10811,-9571,1310,1417,333,32,-908,675
37575,24,81,102,39,50,42,26,23,7760,-408,-10833,-9524,1500,1556,350,-103,-497,681
37582,32,39,41,26,30,29,22,17,7447,-1090,-11253,-9229,1341,1242,97,177,-687,368
37583,26,37,41,22,27,32,21,17,7405,-1210,-11329,-9155,1309,1237,66,205,-762,465
37612,22,36,41,21,28,47,24,18,7353,-1344,-11409,-9078,1351,1274,10,180,-845,498
37617,24,39,37,19,26,51,23,17,7287,-1485,-11489,-9008,1434,1321,-9,132,-928,464
37640,28,31,29,20,26,50,23,18,7206,-1626,-11569,-8946,1528,1354,-70,85,-970,383
37655,26,29,25,21,25,52,24,18,7116,-1762,-11645,-8894,1609,1408,-142,25,-961,319
37677,24,29,24,22,24,50,25,22,7035,-1894,-11707,-8850,1677,1416,-192,-36,-863,302
37708,24,32,24,22,23,46,30,66,6969,-2018,-11755,-8811,1704,1395,-236,-82,-738,303
37715,22,29,22,22,21,44,41,86,6916,-2135,-11791,-8777,1683,1370,-226,-101,-649,315
37739,21,29,20,24,23,53,49,92,6860,-2248,-11826,-8745,1596,1319,-244,-107,-641,308
37760,21,31,21,24,22,52,48,92,6791,-2369,-11865,-8714,1487,1254,-271,-129,-718,310
37776,25,32,20,23,21,53,49,93,6718,-2493,-11910,-8675,1536,1268,-224,-63,-796,324
37797,30,29,19,22,21,48,47,83,6638,-2601,-11962,-8634,1605,1322,-267,-4,-787,238
37820,31,28,21,23,20,52,44,87,6548,-2690,-12010,-8608,1622,1335,-296,-45,-754,102
37842,29,24,21,23,16,46,42,82,6453,-2774,-12056,-8589,1560,1255,-290,-67,-758,41
37857,29,24,21,24,17,46,42,84,6365,-2851,-12109,-8555,1532,1195,-279,45,-751,40
37880,26,24,22,23,18,45,41,83,6290,-2917,-12154,-8524,1575,1251,-276,61,-663,49
37895,20,25,22,23,17,43,42,74,6228,-2981,-12182,-8507,1640,1330,-293,-22,-553,73
37917,19,26,20,21,17,32,37,91,6177,-3046,-12196,-8501,1622,1282,-316,-111,-465,89
37948,20,28,20,21,20,49,45,120,6137,-3108,-12208,-8491,1595,1224,-310,-78,-415,105
37955,23,26,19,22,30,55,46,124,6103,-3159,-12227,-8468,1544,1188,-329,13,-377,104
37985,23,25,20,22,30,56,47,125,6076,-3199,-12253,-8436,1572,1205,-377,97,-332,88
38000,23,23,20,23,30,54,46,124,6051,-3226,-12283,-8400,1594,1225,-458,131,-267,43
38016,23,23,22,28,36,57,45,97,6024,-3246,-12317,-8363,1590,1241,-487,159,-265,18
38037,27,22,22,27,34,48,42,54,5990,-3268,-12352,-8326,1547,1266,-483,157,-301,28
38060,24,22,24,25,27,48,44,42,5951,-3296,-12381,-8300,1543,1273,-474,87,-328,29
38075,25,22,23,28,28,48,46,42,5916,-3324,-12400,-8284,1563,1228,-452,24,-294,10
38098,24,20,21,28,28,55,45,40,5890,-3346,-12419,-8266,1584,1199,-456,53,-245,-12
38120,24,19,20,22,22,53,46,44,5873,-3355,-12444,-8238,1564,1186,-446,157,-205,-22
38135,20,19,22,24,25,49,41,55,5859,-3360,-12473,-8202,1577,1229,-485,209,-179,-7
38159,21,16,21,25,24,41,42,69,5849,-3369,-12492,-8176,1563,1262,-479,144,-153,37
38180,20,15,21,21,23,40,40,72,5836,-3387,-12504,-8159,1534,1245,-498,56,-153,52
38195,23,17,20,20,23,33,51,78,5820,-3404,-12514,-8148,1526,1241,-511,26,-153,39
38226,24,17,20,22,23,44,57,78,5807,-3421,-12521,-8139,1585,1247,-537,3,-131,27
38240,23,17,23,22,19,46,59,75,5794,-3431,-12534,-8124,1546,1226,-532,58,-131,5
38262,24,19,22,24,20,49,57,67,5779,-3432,-12555,-8102,1514,1229,-547,125,-126,-22
38277,24,21,23,24,24,51,58,65,5765,-3438,-12575,-8080,1550,1231,-574,111,-132,-6
38301,22,22,24,27,24,50,52,67,5751,-3449,-12586,-8067,1542,1217,-560,38,-126,5
38315,22,23,25,26,26,40,43,66,5742,-3457,-12593,-8059,1550,1198,-563,21,-85,-10
38337,23,24,22,25,27,43,41,87,5740,-3460,-12601,-8047,1539,1216,-558,58,-50,4
38368,28,25,21,24,26,44,44,92,5736,-3462,-12608,-8038,1513,1226,-580,41,-36,4
38375,27,23,22,25,24,43,42,90,5730,-3467,-12612,-8033,1524,1216,-568,9,-55,1
38399,26,26,23,24,27,45,40,82,5723,-3472,-12617,-8028,1534,1231,-561,16,-58,0
1,Repeat 1,,,,,,,,,,,,,,,,,
23,25,26,21,23,24,44,51,74,5719,-3475,-12621,-8024,1538,1185,-601,0,1,-13
38,19,25,24,21,26,38,48,66,5724,-3473,-12626,-8013,1532,1171,-599,53,13,-8
61,17,26,21,19,26,36,47,65,5725,-3471,-12634,-8001,1528,1228,-609,63,-7,0
83,19,23,21,19,23,33,47,63,5718,-3473,-12638,-7999,1537,1275,-601,5,-33,1
98,17,23,23,19,23,29,45,51,5711,-3474,-12636,-8006,1537,1275,-561,-37,-31,-16
121,19,21,25,18,23,23,36,36,5709,-3470,-12633,-8014,1540,1233,-537,-28,2,-43
136,20,22,24,20,22,25,39,30,5715,-3459,-12630,-8019,1543,1187,-548,-3,55,-69
158,20,22,26,22,25,27,41,37,5726,-3447,-12628,-8021,1524,1161,-558,10,84,-57
189,18,21,27,20,25,30,39,40,5733,-3438,-12631,-8015,1507,1179,-597,39,55,-31
203,18,22,26,22,26,31,39,38,5737,-3437,-12632,-8010,1527,1230,-621,9,37,11
227,16,21,24,23,26,35,36,34,5735,-3442,-12631,-8011,1518,1259,-634,-39,6,23
241,13,28,24,20,24,37,33,34,5730,-3447,-12629,-8016,1531,1251,-611,-54,-6,4
263,14,27,22,18,20,35,31,27,5729,-3446,-12626,-8021,1544,1234,-584,-35,15,-27
278,14,27,19,19,20,33,33,33,5733,-3440,-12625,-8023,1542,1202,-581,-8,38,-43
301,15,29,17,19,19,36,34,43,5743,-3431,-12623,-8023,1558,1220,-559,19,66,-27
332,17,36,19,18,21,33,32,48,5754,-3423,-12618,-8026,1558,1232,-576,-5,84,-21
338,18,30,20,20,22,32,28,49,5761,-3418,-12612,-8032,1536,1223,-589,-38,74,-19
362,20,30,19,20,21,34,29,48,5768,-3417,-12604,-8041,1515,1217,-571,-62,67,-1
383,24,30,21,21,21,35,27,40,5771,-3418,-12597,-8048,1508,1225,-581,-58,46,7
400,24,29,23,20,21,31,25,34,5778,-3418,-12592,-8051,1517,1205,-555,-29,45,4
421,24,26,23,21,19,31,28,36,5786,-3415,-12588,-8053,1526,1204,-554,-12,57,-5
443,25,27,21,20,19,27,32,85,5794,-3412,-12586,-8052,1528,1206,-562,6,52,-3
466,24,32,22,24,21,29,33,92,5797,-3410,-12586,-8051,1531,1227,-580,-7,32,-2
481,19,32,22,25,22,36,39,93,5792,-3416,-12586,-8051,1514,1235,-598,-34,-18,14
503,20,31,23,26,21,38,38,95,5783,-3427,-12585,-8054,1515,1229,-575,-59,-47,17
518,18,27,22,28,23,39,40,97,5776,-3438,-12583,-8058,1539,1230,-565,-62,-50,11
541,18,42,25,28,23,39,39,61,5774,-3443,-12580,-8062,1554,1223,-539,-34,-17,-4
580,20,39,24,26,21,37,38,52,5778,-3445,-12576,-8065,1540,1227,-532,-27,15,9
581,20,41,23,25,21,28,32,50,5786,-3448,-12568,-8070,1541,1241,-527,-32,39,32
609,22,54,20,24,22,25,36,43,5799,-3454,-12554,-8081,1543,1241,-480,-63,53,54
623,23,55,19,25,23,21,32,31,5811,-3458,-12537,-8097,1520,1255,-482,-91,75,48
640,22,45,18,23,26,22,34,29,5830,-3450,-12515,-8121,1575,1313,-462,-94,145,16
661,21,48,19,22,26,22,32,30,5861,-3432,-12486,-8150,1626,1319,-445,-103,237,-15
683,24,52,20,24,32,24,33,36,5893,-3403,-12454,-8187,1580,1250,-496,-150,318,-83
698,22,42,24,42,38,23,30,73,5932,-3375,-12422,-8220,1555,1156,-517,-154,359,-79
721,21,40,26,48,39,25,32,81,5977,-3361,-12397,-8230,1551,1081,-594,-97,347,1
744,19,41,26,58,49,25,29,80,6015,-3367,-12381,-8224,1513,1093,-611,-55,234,117
758,19,37,31,65,56,33,29,80,6044,-3385,-12367,-8218,1518,1195,-577,-64,145,186
782,19,32,31,70,58,35,27,78,6060,-3408,-12353,-8216,1528,1283,-561,-87,81,194
812,20,34,29,68,83,35,25,45,6063,-3418,-12340,-8231,1549,1332,-507,-123,53,84
818,23,33,32,77,104,40,23,25,6064,-3410,-12323,-8258,1590,1329,-437,-129,85,-37
849,25,32,30,72,101,40,22,25,6075,-3390,-12302,-8289,1620,1278,-381,-115,153,-95
863,25,32,25,66,97,33,22,21,6100,-3352,-12279,-8321,1631,1256,-359,-70,262,-147
878,23,27,26,61,96,30,21,22,6140,-3295,-12254,-8351,1614,1230,-319,-6,376,-183
901,22,20,26,53,73,29,22,22,6190,-3225,-12226,-8382,1601,1236,-316,22,463,-206
923,20,19,19,28,33,18,20,21,6246,-3144,-12198,-8412,1580,1238,-295,46,524,-226
938,17,22,20,24,29,16,18,19,6304,-3057,-12167,-8446,1568,1241,-284,41,562,-250
961,17,23,24,26,28,16,18,19,6361,-2968,-12138,-8476,1557,1235,-301,47,572,-260
992,15,24,23,25,24,18,21,15,6418,-2879,-12112,-8501,1556,1231,-299,74,572,-254
998,15,29,24,24,22,19,20,15,6475,-2785,-12089,-8521,1551,1259,-320,102,584,-257
1022,15,28,33,26,23,21,19,20,6530,-2692,-12068,-8540,1529,1274,-325,99,580,-248
1043,16,26,38,24,22,23,20,21,6581,-2603,-12046,-8560,1528,1325,-327,82,564,-231
1060,20,24,41,22,25,28,20,20,6627,-2521,-12019,-8587,1512,1344,-314,14,538,-217
1088,21,26,54,23,26,31,20,22,6671,-2448,-11986,-8619,1507,1349,-272,-40,515,-193
1103,22,27,67,28,26,33,22,21,6711,-2381,-11953,-8654,1506,1315,-252,-63,481,-208
1126,22,35,88,29,33,40,23,17,6750,-2312,-11920,-8686,1508,1303,-228,-51,478,-221
1141,22,36,89,33,38,43,25,18,6795,-2237,-11884,-8721,1523,1306,-214,-56,527,-240
1163,19,36,87,34,36,40,25,18,6840,-2152,-11848,-8755,1494,1350,-217,-30,566,-251
1194,18,34,80,33,37,38,24,19,6881,-2068,-11822,-8780,1461,1308,-197,24,516,-260
1201,18,30,69,30,38,37,24,19,6913,-1984,-11802,-8800,1445,1297,-198,53,470,-285
1232,17,25,40,26,35,27,24,20,6937,-1902,-11785,-8822,1400,1311,-164,56,413,-289
1246,20,24,41,27,34,26,24,18,6950,-1839,-11773,-8841,1369,1332,-158,26,307,-232
1270,21,33,49,32,43,26,24,17,6953,-1793,-11764,-8860,1352,1363,-157,-13,206,-176
1283,25,40,70,71,78,41,26,20,6967,-1771,-11742,-8882,1433,1365,-81,-82,178,-80
1307,23,39,74,79,84,43,29,20,7008,-1761,-11708,-8897,1498,1379,-104,-120,290,59
1321,32,46,79,128,127,78,40,27,7053,-1740,-11673,-8911,1487,1417,-93,-93,343,45
1343,34,52,86,154,180,94,47,34,7115,-1718,-11629,-8924,1512,1343,-25,-83,412,73
1375,43,62,96,204,256,139,71,45,7205,-1684,-11581,-8921,1546,1378,-31,2,572,150
1381,44,60,89,232,285,153,77,49,7293,-1641,-11545,-8905,1476,1329,-29,111,555,148
1413,46,63,90,255,298,161,81,78,7395,-1582,-11506,-8881,1470,1338,6,185,663,156
1442,44,68,112,277,350,188,90,98,7488,-1511,-11470,-8862,1432,1360,18,200,650,97
1444,55,88,140,310,419,236,115,108,7557,-1445,-11445,-8846,1379,1318,-15,181,540,28
1479,66,103,173,317,450,296,143,115,7607,-1394,-11429,-8833,1385,1323,-43,131,413,16
1486,71,115,197,340,479,335,158,117,7645,-1340,-11416,-8825,1361,1351,8,144,344,-25
1517,75,122,206,336,486,351,165,108,7679,-1291,-11404,-8818,1401,1341,3,120,321,-39
1523,76,120,201,322,458,351,166,97,7713,-1239,-11381,-8825,1434,1376,15,41,364,-86
1554,76,117,198,311,420,342,164,91,7733,-1191,-11356,-8847,1429,1421,13,-43,314,-137
1561,83,129,209,296,422,348,168,99,7742,-1140,-11332,-8877,1427,1435,27,-66,282,-203
1585,82,126,192,303,394,319,159,97,7734,-1093,-11316,-8910,1374,1429,45,-70,177,-237
1615,78,131,188,304,381,301,151,89,7744,-1047,-11286,-8945,1497,1420,103,-94,263,-237
1622,77,130,195,300,372,280,144,82,7764,-986,-11249,-8982,1471,1439,120,-82,366,-252
1654,73,132,221,296,336,269,138,81,7779,-919,-11207,-9027,1397,1425,110,-123,391,-298
1666,58,108,213,313,246,207,111,62,7785,-852,-11170,-9074,1344,1404,122,-113,345,-328
1697,53,100,245,287,214,188,104,60,7802,-788,-11136,-9108,1406,1404,131,-70,366,-277
1727,54,91,255,277,214,183,102,59,7839,-712,-11084,-9145,1454,1465,176,-85,522,-273
1729,52,89,247,270,199,182,101,58,7875,-625,-11034,-9182,1408,1468,180,-57,551,-301
1757,46,69,210,243,192,153,84,48,7897,-534,-10989,-9222,1365,1434,205,-36,494,-376
1763,36,64,189,237,196,121,72,39,7915,-445,-10943,-9265,1307,1452,236,-57,467,-370
1794,36,62,146,213,234,135,81,46,7936,-364,-10894,-9309,1270,1428,240,-90,468,-338
1801,36,58,135,240,267,148,85,49,7972,-296,-10839,-9344,1340,1422,270,-104,491,-248
1864,37,59,136,245,278,149,85,48,8025,-221,-10778,-9372,1334,1461,283,-85,602,-192
1866,34,59,141,244,271,148,84,47,8070,-136,-10718,-9404,1255,1487,284,-69,601,-230
1870,30,57,144,207,253,123,68,41,8093,-49,-10673,-9435,1196,1479,304,-17,482,-292
1883,30,56,139,198,206,112,55,30,8097,35,-10641,-9468,1152,1479,255,-17,382,-342
1906,31,53,135,168,171,105,52,31,8087,107,-10616,-9504,1165,1484,271,-25,275,-363
1928,30,53,129,157,188,120,57,36,8080,181,-10598,-9530,1156,1479,264,27,274,-344
1968,34,51,129,152,195,123,59,39,8065,250,-10585,-9555,1151,1538,295,43,208,-334
1969,34,50,139,155,214,127,58,39,8046,315,-10572,-9584,1139,1537,300,23,179,-344
1988,42,64,156,181,252,148,69,50,8021,373,-10563,-9612,1123,1512,314,23,120,-345
2003,47,74,167,203,275,188,88,57,8008,429,-10547,-9638,1104,1501,314,4,178,-303
2034,48,74,168,206,261,188,89,56,8001,486,-10532,-9657,1099,1572,316,28,199,-241
2058,56,83,175,230,341,228,111,64,7991,541,-10519,-9678,1035,1546,358,40,159,-242
2065,59,83,148,236,338,238,116,65,7978,588,-10505,-9700,1031,1539,362,14,122,-235
2095,55,73,125,211,318,233,113,61,7968,620,-10495,-9717,1068,1535,318,-14,98,-176
2109,50,59,99,194,300,202,97,51,7963,657,-10488,-9727,1117,1578,318,31,130,-170
2133,63,79,157,322,362,236,112,66,7948,696,-10481,-9744,1063,1601,331,12,90,-202
2146,57,78,164,328,306,218,99,61,7937,724,-10466,-9766,1008,1540,356,-45,80,-168
2168,53,75,168,334,296,206,94,59,7932,734,-10455,-9782,1032,1555,333,-74,44,-74
2183,52,79,176,362,297,204,94,56,7922,741,-10450,-9795,1000,1556,363,-38,-19,-57
2207,59,84,209,381,342,224,109,67,7918,748,-10442,-9806,1028,1563,389,-30,10,-43
2245,43,79,180,277,285,186,94,52,7925,752,-10428,-9816,1051,1563,384,-63,66,-9
2246,41,72,173,275,264,160,83,48,7932,769,-10415,-9822,1034,1612,387,-17,100,-18
2268,52,89,197,313,327,197,102,60,7922,788,-10413,-9830,979,1601,384,23,18,-72
2305,56,95,201,318,401,211,110,65,7911,803,-10409,-9842,997,1566,383,-6,6,-89
2306,55,100,171,296,401,213,107,60,7909,814,-10400,-9852,1066,1588,370,-33,49,-67
2342,54,91,182,293,387,211,105,61,7911,827,-10394,-9856,1067,1589,356,-6,66,-46
2349,54,95,186,306,436,220,107,62,7908,839,-10394,-9857,1040,1595,346,15,32,-36
2371,46,94,179,284,415,194,90,53,7911,842,-10386,-9863,1018,1582,406,-27,22,0
2386,41,88,175,247,346,173,79,47,7919,845,-10378,-9865,1082,1623,384,-25,61,17
2410,35,80,187,247,310,163,72,41,7923,862,-10371,-9868,1074,1629,385,4,85,-45
2424,37,86,188,268,311,164,73,39,7916,888,-10366,-9876,996,1608,370,24,68,-101
2446,36,82,174,280,230,155,73,38,7916,910,-10359,-9881,992,1593,382,19,83,-65
2477,41,77,204,318,245,151,75,39,7919,929,-10354,-9882,975,1592,350,18,89,-25
2484,38,90,211,329,228,150,74,37,7926,932,-10352,-9879,988,1547,357,3,39,37
2522,34,87,214,323,215,119,62,33,7934,931,-10349,-9876,1015,1581,369,-6,31,55
2529,34,82,205,330,206,110,60,33,7943,930,-10347,-9870,1030,1614,359,-9,40,70
2553,40,86,213,357,231,132,70,38,7946,926,-10348,-9868,1029,1619,370,-12,-7,54
2582,36,79,166,312,199,130,65,33,7947,922,-10345,-9871,1054,1604,378,-34,-2,15
2589,39,60,157,313,206,128,66,37,7946,922,-10345,-9871,1041,1604,372,-15,-10,10
2620,39,58,133,314,206,129,67,36,7946,925,-10346,-9869,1027,1618,378,13,3,21
2626,41,59,116,343,231,131,68,39,7946,926,-10346,-9869,1036,1610,384,12,9,15
2657,50,65,127,286,254,168,92,49,7949,928,-10342,-9871,1031,1590,385,-12,24,13
2664,53,68,138,309,248,182,99,52,7953,923,-10339,-9871,1015,1573,377,-29,1,40
2696,51,71,141,314,249,180,100,50,7957,914,-10340,-9868,1059,1581,372,-15,-14,55
2717,52,73,138,324,254,183,99,51,7957,910,-10340,-9868,1028,1579,378,-15,-16,30
2725,51,77,139,280,236,186,99,51,7958,904,-10339,-9869,1028,1606,382,-26,-17,44
2754,40,68,132,279,212,139,70,37,7956,896,-10338,-9873,1019,1596,376,-47,-35,32
2769,35,63,117,251,202,109,59,34,7957,889,-10338,-9873,1053,1583,399,-14,-26,37
2799,34,65,111,234,213,115,57,36,7966,883,-10331,-9874,1060,1584,389,-44,28,45
2806,38,68,115,224,205,135,68,39,7976,879,-10323,-9874,1074,1602,395,-42,42,54
2830,41,71,128,348,263,151,71,44,7978,878,-10323,-9873,1038,1600,379,-8,3,30
2859,38,71,112,357,270,145,66,44,7975,877,-10324,-9874,1027,1592,378,-9,-17,13
2866,37,78,113,344,274,155,69,43,7978,872,-10323,-9872,1056,1586,365,-22,0,39
2898,37,75,109,352,262,146,66,41,7976,869,-10323,-9874,1021,1592,380,-23,-23,24
2904,31,75,103,349,256,124,55,37,7974,862,-10322,-9878,1047,1592,405,-30,-35,22
2936,26,65,81,224,194,95,49,30,7971,852,-10322,-9882,1080,1578,383,-46,-41,12
2949,25,66,78,199,144,91,48,29,7966,843,-10324,-9884,1032,1556,389,-21,-59,22
2966,26,58,83,194,122,69,41,27,7961,828,-10331,-9882,1015,1552,372,-11,-87,60
2986,25,69,73,153,107,69,42,24,7948,806,-10347,-9878,954,1545,364,2,-170,93
3009,26,77,75,138,92,61,39,23,7910,766,-10389,-9868,938,1520,288,48,-371,97
3031,25,78,82,103,86,61,32,20,7826,705,-10469,-9855,841,1499,231,127,-709,77
3046,24,79,78,63,84,58,31,18,7712,612,-10570,-9843,755,1420,269,150,-1000,105
3077,21,77,71,46,73,55,27,18,7605,479,-10668,-9827,794,1348,329,93,-1128,254
3099,25,82,78,43,71,55,25,20,7537,307,-10752,-9795,963,1319,281,-14,-1054,493
3130,32,92,87,42,70,54,24,20,7512,113,-10809,-9756,1202,1350,301,-126,-897,653
3137,32,91,83,37,61,39,24,19,7521,-63,-10857,-9695,1242,1443,244,-59,-675,791
3183,32,91,83,31,55,39,22,20,7529,-225,-10914,-9623,1219,1457,175,23,-639,801
3185,34,100,82,27,40,37,23,21,7533,-388,-10970,-9550,1200,1490,231,50,-690,828
3222,30,86,72,30,36,42,29,20,7536,-554,-11031,-9469,1362,1546,218,88,-704,832
3224,30,69,58,30,35,44,30,21,7537,-702,-11087,-9392,1582,1560,230,115,-650,685
3250,32,69,53,27,30,42,29,21,7539,-877,-11188,-9256,1646,1574,100,217,-355,351
3252,38,64,42,29,30,41,28,22,7533,-924,-11234,-9201,1525,1535,76,219,-291,269
3287,45,50,36,25,32,53,29,21,7521,-968,-11278,-9152,1364,1405,73,204,-307,248
3294,51,44,31,22,29,45,20,19,7497,-1021,-11331,-9100,1260,1280,31,209,-405,245
3326,48,34,27,21,26,43,18,19,7452,-1091,-11401,-9041,1276,1250,-13,225,-568,250
3331,46,25,26,21,29,54,21,18,7393,-1175,-11485,-8972,1364,1278,-88,255,-691,261
3355,42,24,26,18,27,56,23,19,7323,-1275,-11576,-8900,1453,1336,-137,236,-795,291
3370,31,22,26,22,24,44,24,20,7247,-1388,-11659,-8835,1570,1391,-175,149,-833,292
3391,21,22,25,21,22,45,25,24,7172,-1510,-11728,-8786,1622,1408,-221,9,-811,296
3414,18,23,20,20,23,51,24,33,7103,-1636,-11774,-8758,1614,1404,-220,-133,-739,298
3438,20,23,22,20,19,45,23,46,7042,-1762,-11805,-8740,1608,1392,-233,-213,-672,315
3451,20,22,22,21,19,43,25,53,6983,-1888,-11827,-8732,1598,1385,-205,-267,-645,308
3474,20,24,20,18,18,51,29,85,6918,-2005,-11847,-8730,1545,1367,-173,-255,-657,266
3491,21,23,21,19,19,54,36,107,6841,-2123,-11876,-8724,1479,1332,-187,-232,-725,245
3511,22,21,21,18,17,47,39,105,6754,-2241,-11907,-8720,1453,1315,-194,-229,-780,213
3534,22,21,18,22,18,40,37,100,6668,-2345,-11941,-8711,1514,1326,-189,-165,-755,161
3550,25,23,22,22,19,51,40,107,6590,-2435,-11971,-8706,1601,1312,-236,-163,-658,80
3571,26,25,21,22,20,46,41,114,6516,-2511,-11995,-8707,1614,1276,-253,-171,-586,12
3594,26,24,20,23,21,41,43,106,6446,-2590,-12023,-8697,1545,1220,-242,-113,-604,56
3610,24,24,19,24,20,41,41,105,6384,-2669,-12056,-8673,1460,1218,-200,-14,-609,138
3631,22,23,21,22,20,42,43,108,6329,-2749,-12088,-8644,1486,1258,-252,3,-576,187
3654,17,21,20,24,21,51,44,100,6278,-2828,-12111,-8624,1583,1282,-295,-66,-521,162
3670,20,17,20,25,21,49,42,86,6232,-2891,-12127,-8613,1656,1329,-309,-81,-439,97
3693,23,17,21,24,21,50,60,139,6185,-2946,-12146,-8602,1578,1277,-345,-71,-409,58
3714,26,15,21,22,21,51,61,156,6127,-3003,-12178,-8579,1473,1191,-411,-23,-466,55
3730,27,17,19,23,21,50,62,155,6062,-3063,-12222,-8541,1438,1179,-426,61,-546,71
3751,28,17,18,24,21,27,58,155,5988,-3126,-12267,-8506,1508,1302,-444,54,-604,80
3774,25,16,19,26,22,44,61,148,5912,-3195,-12300,-8486,1593,1368,-439,-47,-608,72
3798,25,19,21,25,21,47,36,91,5845,-3253,-12320,-8481,1617,1336,-390,-90,-525,17
3811,23,23,22,27,23,56,39,70,5792,-3296,-12335,-8479,1608,1264,-369,-72,-420,-35
3835,22,24,22,28,24,59,38,72,5754,-3322,-12353,-8469,1569,1208,-375,13,-320,-59
3850,24,23,22,25,22,61,46,87,5726,-3341,-12372,-8453,1537,1212,-408,56,-250,-40
3871,25,23,22,22,21,52,52,102,5700,-3361,-12388,-8438,1537,1239,-466,37,-219,-10
3901,23,22,21,25,22,50,55,116,5673,-3388,-12404,-8422,1514,1232,-509,7,-233,19
3910,24,19,19,24,21,38,51,113,5641,-3420,-12423,-8403,1503,1254,-529,12,-265,40
3939,25,19,19,22,20,35,51,119,5602,-3454,-12436,-8395,1505,1306,-528,-46,-284,36
3954,22,19,18,22,21,38,47,108,5560,-3488,-12447,-8393,1526,1286,-531,-87,-293,4
3970,25,21,18,25,21,51,38,92,5522,-3519,-12459,-8387,1544,1267,-524,-55,-279,-9
3991,25,20,19,23,20,51,36,79,5494,-3542,-12474,-8373,1545,1233,-500,19,-245,-15
4014,25,19,17,22,19,54,37,74,5475,-3559,-12488,-8358,1547,1252,-485,62,-196,-7
4031,25,18,18,22,20,56,40,68,5469,-3568,-12497,-8345,1562,1264,-476,69,-118,2
4051,26,20,19,23,20,54,48,83,5472,-3572,-12502,-8333,1532,1242,-497,64,-40,6
4075,22,18,20,20,21,42,46,80,5481,-3568,-12508,-8321,1531,1239,-520,87,13,-5
4096,20,19,19,20,22,41,47,80,5491,-3559,-12516,-8306,1519,1254,-553,102,38,-15
7,Repeat 2,,,,,,,,,,,,,,,,,
35,16,20,20,20,23,32,45,82,5494,-3547,-12530,-8288,1498,1277,-588,20,4,-21
44,17,20,21,20,23,29,38,87,5487,-3549,-12533,-8288,1486,1263,-571,-20,-28,-24
81,21,21,20,21,22,27,42,98,5475,-3561,-12535,-8286,1467,1213,-580,-45,-71,-2
88,21,20,19,20,20,26,40,92,5468,-3575,-12538,-8280,1463,1167,-557,-23,-75,12
110,21,22,23,20,20,26,37,92,5467,-3582,-12542,-8272,1506,1227,-554,23,-42,16
125,22,19,23,20,23,33,36,93,5471,-3586,-12546,-8263,1501,1267,-560,40,-9,31
148,22,18,22,20,22,28,37,84,5474,-3590,-12549,-8254,1484,1272,-537,45,-19,40
164,19,16,22,19,22,26,32,75,5473,-3596,-12555,-8243,1496,1256,-558,49,-44,31
185,20,19,23,19,23,28,34,77,5468,-3601,-12564,-8230,1521,1270,-582,54,-60,7
216,19,20,20,19,20,28,37,77,5462,-3608,-12572,-8219,1520,1263,-596,33,-65,13
224,21,21,20,20,18,21,37,70,5454,-3619,-12576,-8213,1515,1257,-589,2,-72,19
247,20,21,21,21,21,23,37,76,5450,-3629,-12578,-8209,1523,1249,-585,-11,-52,16
268,20,24,20,21,19,23,39,111,5448,-3636,-12580,-8204,1514,1238,-587,-5,-31,13
286,19,22,20,23,19,24,38,117,5448,-3636,-12580,-8204,1520,1261,-599,4,-2,6
313,20,21,20,24,21,27,38,130,5451,-3635,-12582,-8199,1528,1252,-599,19,12,-7
328,18,20,21,23,23,31,41,135,5453,-3631,-12586,-8192,1501,1237,-597,35,14,-19
360,18,20,21,23,23,30,38,125,5451,-3629,-12591,-8187,1492,1244,-610,23,0,-18
365,17,21,21,22,24,32,36,94,5451,-3629,-12592,-8186,1502,1251,-590,10,-14,-7
389,17,20,21,21,24,32,34,86,5450,-3631,-12593,-8184,1524,1258,-580,4,-17,-6
404,17,20,20,19,22,29,32,66,5451,-3631,-12595,-8181,1530,1254,-567,18,-10,-12
426,15,21,20,19,20,25,26,59,5455,-3627,-12597,-8177,1525,1242,-554,37,4,-17
456,16,22,19,16,17,26,29,81,5458,-3620,-12600,-8172,1521,1241,-576,42,19,-36
464,19,26,18,22,18,27,30,84,5460,-3613,-12603,-8170,1519,1242,-604,21,27,-45
493,19,29,18,23,21,42,37,83,5462,-3610,-12603,-8170,1536,1231,-605,-14,21,-34
508,20,30,20,23,23,46,40,79,5461,-3610,-12602,-8172,1528,1242,-618,-30,14,-25
525,20,29,20,24,22,46,39,78,5457,-3612,-12602,-8175,1507,1232,-609,-39,-5,-28
545,19,29,20,27,24,48,39,58,5456,-3610,-12601,-8177,1524,1242,-591,-18,5,-34
568,18,23,21,23,23,46,37,62,5456,-3601,-12604,-8177,1503,1264,-598,11,30,-47
592,17,23,24,22,24,33,32,67,5456,-3592,-12605,-8179,1490,1253,-596,5,37,-48
605,15,23,21,23,27,35,28,65,5459,-3586,-12602,-8184,1491,1241,-575,-25,40,-40
637,18,22,21,24,30,39,35,63,5465,-3583,-12594,-8193,1482,1230,-567,-53,63,-12
644,18,21,21,23,29,36,33,67,5478,-3583,-12585,-8200,1499,1240,-573,-49,85,18
667,19,19,21,24,32,39,39,85,5492,-3578,-12576,-8205,1501,1263,-589,-32,108,19
695,21,21,19,24,31,41,46,84,5506,-3571,-12570,-8210,1480,1280,-566,-8,104,13
704,22,23,20,25,29,37,46,86,5515,-3565,-12566,-8211,1463,1252,-583,-9,80,9
734,20,24,20,22,27,32,43,86,5522,-3560,-12565,-8210,1482,1244,-580,7,59,-2
748,20,26,20,20,27,32,43,83,5528,-3556,-12565,-8208,1502,1264,-566,16,39,-1
770,18,27,18,20,24,28,37,55,5533,-3554,-12564,-8208,1511,1267,-555,7,26,1
787,16,24,19,19,21,26,26,49,5537,-3554,-12562,-8208,1500,1244,-542,-2,19,3
808,18,22,20,18,21,23,26,67,5541,-3552,-12560,-8208,1504,1247,-545,3,22,-4
838,18,22,20,18,21,24,26,74,5548,-3550,-12559,-8206,1535,1247,-567,10,35,-4
847,19,22,25,19,20,26,25,71,5555,-3546,-12558,-8204,1537,1258,-563,13,46,-6
869,19,21,25,19,20,27,27,73,5563,-3540,-12557,-8204,1510,1258,-559,13,57,-8
890,19,20,24,18,21,28,27,71,5568,-3536,-12557,-8202,1497,1245,-569,9,40,-5
914,19,19,23,20,20,30,26,51,5572,-3532,-12556,-8202,1490,1247,-556,8,31,-8
928,20,19,21,21,19,29,24,40,5576,-3529,-12556,-8201,1510,1263,-540,13,24,-1
950,22,17,16,20,19,28,23,44,5580,-3527,-12555,-8201,1502,1257,-535,8,23,-3
974,22,18,17,21,20,28,31,82,5586,-3524,-12551,-8203,1502,1244,-519,-3,27,-2
988,22,21,19,21,20,23,36,89,5593,-3521,-12550,-8201,1502,1222,-548,14,44,-2
1012,22,21,18,20,22,21,36,89,5604,-3515,-12550,-8198,1488,1231,-549,29,63,1
1027,21,21,19,20,21,22,36,89,5611,-3511,-12550,-8194,1477,1259,-563,21,51,18
1048,18,24,19,19,21,24,37,87,5615,-3513,-12549,-8192,1489,1252,-562,1,21,25
1078,17,25,20,18,20,24,29,47,5619,-3513,-12549,-8190,1515,1250,-547,10,19,14
1087,18,23,20,17,19,22,19,29,5625,-3510,-12549,-8186,1545,1268,-559,24,30,-1
1115,17,25,21,20,18,23,19,28,5633,-3504,-12548,-8184,1535,1262,-556,21,51,-7
1131,19,25,21,20,18,29,27,30,5643,-3495,-12546,-8184,1508,1263,-539,23,74,-4
1147,20,24,22,22,20,27,30,64,5654,-3489,-12543,-8185,1482,1239,-532,9,70,7
1168,19,22,20,23,19,27,32,71,5658,-3485,-12544,-8182,1490,1246,-549,21,34,1
1192,18,23,19,23,25,31,33,72,5663,-3486,-12543,-8180,1508,1255,-537,7,16,21
1208,18,24,19,25,29,32,33,73,5667,-3488,-12542,-8177,1509,1245,-559,8,21,23
1228,16,24,19,26,29,26,27,72,5672,-3487,-12544,-8171,1513,1235,-576,21,28,12
1253,16,26,18,25,28,27,21,45,5678,-3485,-12546,-8166,1515,1239,-575,21,39,7
1273,16,25,19,26,28,29,21,37,5686,-3484,-12544,-8163,1528,1238,-555,7,41,13
1289,16,25,19,27,23,27,24,36,5694,-3483,-12541,-8162,1533,1226,-557,-1,47,10
1318,18,23,21,24,18,26,24,38,5703,-3480,-12540,-8159,1567,1239,-567,10,56,-6
1327,16,23,20,31,20,31,25,56,5710,-3472,-12538,-8160,1539,1279,-579,6,70,-10
1355,16,22,20,32,21,43,37,58,5716,-3463,-12535,-8165,1543,1288,-569,-17,76,-23
1370,18,23,22,31,20,47,37,57,5723,-3453,-12530,-8172,1524,1271,-535,-16,74,-24
1394,16,19,22,31,22,45,34,58,5731,-3442,-12524,-8180,1534,1270,-528,-17,83,-37
1408,17,21,24,32,24,44,35,61,5739,-3427,-12519,-8188,1518,1267,-526,-14,97,-51
1430,17,20,24,25,23,43,36,52,5751,-3412,-12512,-8196,1496,1239,-499,-7,113,-40
1447,18,18,23,22,23,33,27,52,5763,-3400,-12506,-8202,1472,1205,-496,-5,102,-26
1468,16,17,20,23,23,29,27,50,5772,-3393,-12502,-8205,1465,1203,-491,1,70,-12
1498,16,18,20,21,21,29,28,46,5780,-3390,-12499,-8205,1512,1229,-483,5,34,3
1507,15,14,17,19,20,29,26,41,5785,-3390,-12496,-8206,1508,1258,-501,-3,27,18
1529,18,18,17,19,25,27,26,39,5792,-3389,-12491,-8209,1538,1271,-510,-15,48,17
1551,17,19,19,20,26,24,26,42,5800,-3386,-12488,-8209,1533,1263,-505,6,48,7
1567,16,23,20,20,29,26,28,46,5800,-3386,-12488,-8209,1498,1234,-482,8,15,4
1595,17,26,21,22,32,27,28,48,5802,-3388,-12489,-8206,1506,1233,-497,17,-8,15
1610,19,26,20,22,34,28,31,47,5808,-3391,-12491,-8198,1514,1243,-513,30,7,40
1634,20,31,33,56,75,36,32,43,5822,-3396,-12486,-8193,1518,1236,-484,20,40,74
1648,20,34,37,57,81,39,30,34,5844,-3406,-12476,-8189,1562,1265,-506,-3,80,117
1672,20,36,38,61,80,36,31,57,5872,-3409,-12465,-8184,1567,1258,-499,14,127,110
1687,20,34,37,63,81,36,30,64,5897,-3408,-12457,-8179,1551,1251,-535,22,130,83
1708,20,34,42,69,85,41,37,87,5919,-3406,-12449,-8176,1551,1253,-516,11,121,73
1738,17,29,36,58,77,38,35,93,5937,-3410,-12440,-8175,1543,1225,-514,-18,88,77
1753,18,25,33,69,91,40,36,93,5952,-3419,-12432,-8173,1531,1217,-522,-30,72,91
1776,18,20,31,70,93,45,34,80,5966,-3428,-12422,-8172,1554,1230,-520,-39,66,89
1790,18,21,31,68,92,45,35,97,5979,-3434,-12414,-8173,1577,1236,-510,-29,66,62
1813,17,21,26,65,89,41,40,102,5988,-3433,-12411,-8172,1570,1227,-515,-6,57,25
1828,16,21,22,56,69,38,42,102,5994,-3430,-12407,-8175,1556,1246,-488,-14,50,4
1852,18,22,23,58,44,36,42,104,5999,-3427,-12403,-8178,1577,1250,-485,-13,39,3
1873,18,22,22,58,40,30,41,105,6001,-3425,-12401,-8180,1579,1236,-466,-2,16,-12
1888,21,21,23,57,41,29,41,87,6004,-3418,-12399,-8184,1570,1206,-450,0,28,-37
1912,20,23,27,58,47,28,30,60,6015,-3408,-12395,-8187,1570,1184,-416,22,64,-41
1933,20,28,27,58,49,27,28,60,6030,-3395,-12391,-8187,1567,1172,-425,43,84,-38
1949,19,29,25,42,50,23,27,65,6046,-3379,-12388,-8187,1563,1185,-424,50,102,-39
1971,20,31,30,42,55,28,31,75,6060,-3367,-12387,-8183,1552,1183,-461,49,88,-17
1993,17,33,30,44,55,30,32,76,6071,-3362,-12387,-8177,1561,1204,-464,45,55,8
2024,17,32,26,42,48,29,30,72,6082,-3353,-12389,-8169,1549,1222,-465,67,59,10
2030,16,28,26,41,43,32,28,68,6091,-3340,-12391,-8164,1528,1249,-468,66,66,-3
2053,19,27,27,42,38,35,32,63,6098,-3326,-12393,-8163,1541,1267,-472,48,69,-15
2068,19,25,21,35,38,32,33,58,6103,-3313,-12393,-8164,1533,1249,-476,28,70,-30
2091,20,24,21,32,37,32,30,71,6105,-3298,-12395,-8166,1513,1243,-482,23,65,-44
2121,21,21,21,29,37,35,31,74,6108,-3279,-12396,-8169,1509,1236,-470,30,74,-62
2128,21,21,21,31,36,33,30,76,6112,-3261,-12399,-8170,1510,1227,-486,36,78,-59
2151,19,20,22,26,33,31,25,75,6112,-3247,-12403,-8169,1502,1220,-499,28,55,-50
2173,17,22,23,28,26,29,20,74,6109,-3236,-12407,-8169,1517,1242,-493,19,25,-46
2190,15,21,22,28,25,27,21,57,6102,-3230,-12413,-8168,1507,1240,-480,17,-11,-38
2211,15,20,21,32,33,25,21,54,6092,-3228,-12418,-8169,1510,1237,-456,6,-47,-32
2233,14,21,22,38,36,40,29,50,6079,-3228,-12422,-8171,1514,1244,-460,-10,-59,-32
2256,17,25,21,38,36,42,29,47,6075,-3228,-12422,-8174,1533,1244,-451,-15,-19,-13
2271,19,23,19,40,38,46,31,38,6075,-3228,-12422,-8174,1514,1248,-447,-13,4,-5
2295,19,25,25,46,41,47,37,68,6077,-3224,-12419,-8178,1532,1254,-436,-4,23,-2
2310,19,26,28,44,42,52,46,80,6080,-3226,-12421,-8173,1523,1245,-479,19,9,32
2331,20,25,27,39,41,40,41,81,6081,-3231,-12425,-8164,1488,1252,-505,31,-8,64
2353,18,22,26,41,42,37,40,81,6081,-3239,-12430,-8153,1504,1262,-493,34,-27,71
2370,18,21,28,47,48,36,43,78,6078,-3249,-12433,-8147,1517,1250,-491,7,-43,57
2391,20,21,28,45,50,42,40,52,6078,-3260,-12432,-8144,1571,1228,-490,-20,-25,45
2413,19,21,24,44,44,38,30,31,6084,-3267,-12428,-8143,1619,1239,-496,-27,18,36
2430,19,23,27,48,44,43,34,42,6096,-3271,-12419,-8146,1634,1239,-501,-42,64,32
2451,19,23,27,47,43,45,36,43,6110,-3273,-12408,-8151,1615,1238,-507,-55,92,28
2473,19,22,26,39,38,48,33,43,6124,-3268,-12397,-8159,1602,1254,-499,-51,119,9
2490,17,22,22,39,35,41,35,68,6135,-3258,-12387,-8172,1577,1273,-487,-57,117,-18
2511,19,22,23,40,33,38,36,76,6138,-3247,-12377,-8188,1555,1272,-464,-70,89,-43
2533,19,22,21,35,32,36,34,71,6134,-3238,-12369,-8206,1528,1258,-433,-78,47,-63
2550,19,21,22,35,31,33,33,71,6127,-3231,-12363,-8225,1519,1216,-431,-90,21,-85
2572,19,24,22,35,28,27,37,73,6119,-3225,-12357,-8241,1527,1180,-435,-87,14,-95
2593,20,30,21,30,23,27,34,52,6111,-3220,-12353,-8255,1523,1181,-428,-77,5,-85
2610,18,37,21,25,26,35,36,39,6102,-3220,-12348,-8269,1528,1200,-428,-83,-16,-64
2638,19,38,23,26,26,37,37,39,6091,-3231,-12341,-8284,1486,1198,-412,-121,-48,-13
2653,18,38,24,25,28,37,36,35,6076,-3250,-12332,-8300,1467,1204,-408,-141,-82,22
2677,17,36,21,24,27,35,31,30,6061,-3272,-12325,-8314,1488,1226,-400,-137,-103,37
2691,20,31,22,25,26,37,31,29,6045,-3290,-12320,-8325,1509,1239,-385,-103,-110,23
2713,19,28,21,24,29,30,23,25,6035,-3303,-12318,-8330,1544,1241,-366,-44,-98,10
2744,18,29,19,24,31,24,22,24,6030,-3312,-12317,-8331,1577,1241,-373,-13,-72,8
2751,19,31,19,24,32,24,24,25,6031,-3318,-12315,-8330,1606,1268,-397,-2,-32,17
2781,21,35,20,25,34,30,23,26,6034,-3321,-12310,-8336,1604,1296,-419,-33,9,13
2796,18,34,19,24,35,31,23,24,6040,-3319,-12298,-8350,1622,1319,-432,-75,67,-5
2812,20,42,21,23,30,32,23,23,6049,-3304,-12281,-8374,1639,1343,-435,-107,136,-63
2833,21,43,23,21,28,34,22,26,6063,-3273,-12254,-8415,1650,1373,-449,-171,256,-137
2857,20,41,24,23,26,34,20,26,6089,-3226,-12213,-8475,1656,1384,-438,-248,406,-192
2878,19,42,38,31,26,35,31,34,6129,-3165,-12156,-8550,1624,1359,-367,-302,539,-229
2893,26,48,56,54,52,52,34,34,6192,-3088,-12085,-8633,1627,1347,-284,-311,700,-239
2917,25,43,69,60,53,52,36,39,6293,-2990,-11994,-8721,1709,1401,-268,-306,973,-215
2931,25,47,91,61,53,53,39,41,6405,-2849,-11894,-8823,1746,1482,-244,-286,1191,-367
2955,26,59,176,63,58,68,41,41,6526,-2681,-11783,-8935,1726,1443,-101,-272,1302,-480
2985,25,81,214,67,67,80,44,35,6650,-2492,-11669,-9047,1623,1426,-87,-250,1413,-536
2991,21,112,266,70,61,73,42,39,6768,-2310,-11558,-9150,1480,1294,38,-203,1333,-521
3021,22,134,276,75,65,78,42,36,6878,-2126,-11462,-9233,1411,1215,85,-74,1252,-535
3060,21,135,283,91,73,81,40,30,6990,-1929,-11382,-9292,1432,1225,42,72,1275,-552
3061,20,136,264,97,74,79,40,32,7100,-1713,-11317,-9329,1441,1271,-32,207,1322,-587
3089,20,123,235,95,70,67,33,30,7195,-1493,-11263,-9360,1411,1296,-24,260,1256,-631
3097,16,100,177,83,69,67,31,25,7280,-1278,-11217,-9381,1332,1308,2,312,1175,-605
3136,18,96,182,91,84,74,36,26,7369,-1085,-11170,-9392,1301,1322,-9,273,1131,-475
3138,19,114,206,80,93,90,43,27,7454,-920,-11118,-9404,1277,1388,44,199,1020,-360
3173,19,115,209,86,135,93,45,24,7529,-785,-11067,-9416,1314,1445,125,139,865,-278
3187,22,127,235,87,146,96,44,27,7620,-655,-11003,-9428,1363,1466,106,73,961,-218
3202,24,123,239,92,152,98,45,28,7705,-536,-10937,-9443,1316,1460,106,16,916,-204
3223,24,102,224,77,155,95,40,26,7770,-415,-10880,-9463,1279,1501,134,31,816,-259
3238,26,79,208,83,171,86,36,27,7819,-290,-10824,-9491,1198,1503,209,38,747,-329
3253,26,72,178,74,159,90,38,30,7865,-168,-10765,-9522,1167,1552,258,12,722,-317
3276,27,51,147,88,169,114,46,29,7916,-48,-10697,-9558,1173,1522,273,-34,762,-327
3292,27,51,137,131,194,140,54,33,7965,82,-10627,-9595,1178,1495,329,-7,783,-391
3329,28,46,137,140,199,156,59,36,8028,227,-10557,-9618,1173,1510,324,78,890,-372
3337,32,56,154,142,207,183,67,38,8084,363,-10495,-9634,1127,1505,350,111,816,-335
3352,33,59,183,156,204,181,67,37,8150,483,-10425,-9649,1149,1537,381,37,815,-252
3373,31,59,192,163,193,176,67,37,8231,598,-10350,-9655,1152,1566,325,8,894,-160
3396,31,56,209,147,166,162,66,36,8305,706,-10281,-9658,1088,1523,310,10,839,-135
3412,35,60,208,144,168,149,62,33,8363,808,-10220,-9665,963,1533,310,-2,724,-130
3442,30,49,179,138,140,121,55,31,8402,895,-10171,-9675,901,1544,287,-23,581,-120
3472,33,40,166,132,158,127,58,31,8425,958,-10135,-9686,895,1525,363,-15,384,-103
3474,33,41,167,144,169,117,58,34,8421,1004,-10118,-9703,958,1583,334,-35,198,-154
3502,35,51,170,131,170,119,57,32,8385,1036,-10121,-9729,930,1590,342,-26,-22,-226
3516,31,49,176,128,162,138,71,38,8346,1062,-10128,-9752,963,1640,368,-11,-66,-212
3548,31,53,172,132,157,137,71,42,8312,1084,-10128,-9778,939,1623,399,-44,-59,-191
3553,28,55,162,128,164,131,66,41,8270,1107,-10134,-9805,903,1564,429,8,-110,-225
3577,29,53,165,97,175,133,65,37,8223,1133,-10146,-9829,857,1526,408,42,-134,-241
3606,27,44,141,109,185,127,61,37,8179,1144,-10164,-9845,914,1544,384,36,-178,-178
3613,38,47,146,125,191,104,44,34,8133,1143,-10193,-9854,868,1541,342,50,-245,-108
3645,52,46,163,168,225,105,46,30,8105,1127,-10210,-9861,898,1545,421,8,-222,1
3675,53,59,202,180,241,133,53,30,8109,1093,-10203,-9868,1020,1573,542,-86,-122,116
3681,55,59,201,178,231,133,50,32,8126,1069,-10188,-9873,1075,1645,532,-99,-12,122
3711,56,60,202,174,221,139,53,34,8142,1064,-10174,-9875,1067,1662,499,-51,59,79
3718,50,56,191,175,236,157,63,38,8153,1077,-10165,-9874,995,1614,471,17,87,24
3749,34,56,177,149,205,151,59,35,8165,1098,-10156,-9871,960,1602,438,35,125,18
3756,33,44,119,133,173,134,54,34,8174,1114,-10149,-9868,936,1600,381,0,109,35
3780,30,45,104,168,196,140,58,37,8182,1111,-10145,-9866,957,1554,410,-27,25,71
3793,33,41,104,187,201,130,57,34,8194,1096,-10139,-9864,973,1567,417,-70,5,123
3818,38,49,121,201,188,110,48,33,8217,1071,-10125,-9863,1047,1576,424,-130,41,166
3854,42,52,143,209,203,119,52,37,8235,1045,-10115,-9860,1021,1581,437,-107,2,171
3861,46,52,156,221,211,133,57,40,8256,1024,-10101,-9860,1039,1587,530,-82,16,155
3885,46,51,146,228,188,128,58,39,8275,1015,-10088,-9858,1046,1625,476,-70,61,125
3898,42,57,163,247,201,139,62,38,8293,1021,-10075,-9855,1046,1625,472,-24,114,71
3922,38,52,157,234,222,137,59,34,8317,1026,-10062,-9847,1028,1555,465,-12,133,93
3936,36,56,139,224,223,133,61,34,8339,1033,-10051,-9840,1018,1556,491,10,115,89
3968,33,59,130,232,255,119,59,32,8358,1034,-10045,-9829,1014,1570,458,11,87,117
3989,32,61,136,218,281,109,52,28,8373,1032,-10039,-9823,987,1562,449,-27,56,111
3996,34,61,117,192,275,97,48,30,8393,1028,-10028,-9818,1040,1583,460,-45,86,117
4028,33,66,111,187,258,99,52,33,8406,1025,-10021,-9814,1005,1554,460,-31,51,91
4033,36,60,106,200,249,91,48,31,8398,1016,-10032,-9811,1005,1544,403,-4,-77,47
4065,41,89,119,194,256,106,51,31,8388,993,-10042,-9811,1019,1494,485,-16,-155,59
4093,44,92,121,192,254,128,59,37,8386,967,-10047,-9810,1054,1544,516,-34,-121,98
4102,44,88,111,175,261,133,59,37,8398,942,-10046,-9804,1110,1581,509,-45,-53,147
4131,44,98,117,182,257,135,61,35,8399,923,-10049,-9801,1036,1554,491,-28,-81,109
4138,40,103,117,157,258,138,61,34,8388,906,-10060,-9801,1025,1534,462,-9,-134,52
4170,37,81,92,143,212,129,59,33,8366,889,-10076,-9805,1002,1521,461,1,-194,9
4176,33,75,84,139,175,106,49,27,8349,870,-10094,-9803,1058,1538,444,9,-173,38
4200,30,89,108,140,148,94,45,27,8330,848,-10121,-9793,1029,1526,429,61,-215,79
4229,27,85,111,129,144,82,38,27,8297,818,-10167,-9776,1019,1514,375,113,-336,85
4236,31,79,108,125,140,80,37,27,8214,768,-10252,-9762,954,1504,285,161,-670,12
4268,28,75,105,110,102,56,28,25,8079,690,-10365,-9761,867,1482,317,176,-1055,-56
4273,29,82,105,77,97,62,36,23,7956,593,-10459,-9768,964,1462,389,70,-1047,-19
4297,33,67,84,64,98,66,38,26,7871,476,-10526,-9770,1049,1449,397,-48,-906,143
4334,33,55,66,50,76,62,37,26,7831,353,-10574,-9757,1203,1463,333,-108,-682,306
4336,30,59,72,44,62,51,35,25,7807,241,-10613,-9737,1240,1465,313,-90,-556,330
4371,28,66,99,48,63,56,36,26,7776,146,-10661,-9711,1223,1497,235,-24,-531,291
4378,27,65,108,45,56,61,29,27,7752,60,-10705,-9683,1224,1539,270,16,-476,309
4409,21,64,121,49,66,73,29,23,7747,-35,-10738,-9650,1284,1595,322,-12,-434,420
4415,21,69,129,51,66,78,29,21,7752,-131,-10761,-9619,1317,1549,274,-64,-355,433
4447,21,66,129,50,63,78,29,23,7754,-221,-10788,-9587,1282,1507,281,-27,-366,417
4454,21,70,113,45,63,75,27,26,7752,-299,-10818,-9552,1247,1444,234,14,-340,370
4477,21,71,105,40,66,62,25,27,7745,-372,-10852,-9516,1242,1435,239,56,-363,340
4522,25,71,90,30,51,40,21,27,7738,-440,-10887,-9479,1278,1442,222,67,-346,323
4523,25,63,78,24,48,42,22,26,7724,-515,-10928,-9440,1261,1419,163,57,-392,337
4559,24,63,71,25,50,44,23,29,7699,-604,-10982,-9392,1212,1362,125,90,-510,382
4561,23,44,61,19,43,41,23,26,7661,-714,-11055,-9329,1171,1265,77,145,-678,443
4590,25,29,67,19,32,42,25,23,7600,-848,-11149,-9256,1149,1219,24,171,-888,489
4597,24,25,61,21,31,41,23,24,7521,-1010,-11254,-9177,1282,1283,2,152,-1076,532
4627,24,26,60,21,27,28,23,26,7428,-1190,-11357,-9104,1437,1365,4,93,-1187,527
4640,24,26,56,19,27,26,21,23,7326,-1375,-11459,-9033,1618,1427,-40,58,-1240,482
4657,26,25,57,20,26,25,21,22,7218,-1553,-11552,-8972,1659,1416,-56,24,-1224,408
4694,29,26,34,23,22,28,20,22,7116,-1713,-11630,-8923,1643,1405,-40,-12,-1121,345
4700,27,27,23,22,21,24,20,22,7033,-1848,-11690,-8883,1661,1427,-10,-4,-949,305
4715,28,25,20,22,19,24,19,20,6970,-1959,-11739,-8845,1659,1385,-43,21,-762,261
4738,28,28,20,23,16,23,21,18,6926,-2042,-11778,-8809,1680,1349,-91,46,-567,196
4760,27,30,16,22,17,29,21,17,6901,-2102,-11805,-8778,1675,1370,-90,72,-396,168
4775,19,32,18,19,18,33,22,20,6884,-2145,-11826,-8753,1601,1380,-97,74,-290,151
4799,21,38,19,26,23,36,22,20,6869,-2186,-11841,-8734,1528,1347,-159,11,-232,154
4820,20,38,19,29,23,60,34,26,6859,-2231,-11850,-8719,1495,1305,-191,-33,-201,178
4835,19,38,24,30,25,66,33,27,6853,-2278,-11862,-8695,1559,1270,-246,-9,-187,190
4858,18,37,24,33,26,65,35,35,6842,-2326,-11879,-8666,1587,1267,-287,9,-206,174
4881,18,33,23,32,27,63,36,33,6826,-2370,-11900,-8638,1564,1289,-313,15,-222,165
4895,16,27,22,27,22,65,36,36,6805,-2415,-11924,-8610,1496,1256,-298,31,-258,161
4918,21,27,20,24,21,51,26,32,6775,-2461,-11951,-8583,1465,1246,-295,25,-307,146
4940,22,19,17,21,19,43,27,32,6738,-2516,-11974,-8564,1503,1267,-296,-37,-355,143
4955,22,15,19,18,18,41,26,23,6697,-2578,-11992,-8553,1574,1257,-289,-97,-383,123
4978,25,17,20,20,17,40,25,26,6657,-2640,-12011,-8538,1611,1225,-277,-70,-397,104
5000,56,19,19,19,16,36,26,29,6620,-2695,-12030,-8523,1581,1265,-238,-31,-386,118
5015,69,20,21,19,21,25,30,30,6589,-2739,-12048,-8508,1568,1309,-242,-1,-330,120
5038,93,31,21,22,23,27,28,53,6566,-2764,-12064,-8494,1579,1322,-265,36,-227,63
5060,143,36,19,23,30,33,32,57,6544,-2766,-12088,-8476,1541,1329,-292,124,-168,-12
5077,156,47,27,23,32,36,33,58,6502,-2758,-12129,-8452,1496,1304,-312,199,-258,-114
5098,178,51,28,24,36,49,35,56,6442,-2750,-12185,-8421,1513,1267,-377,233,-357,-190
5120,177,52,28,24,34,52,32,56,6369,-2748,-12243,-8393,1493,1236,-407,193,-428,-220
5135,179,52,30,24,34,55,42,40,6300,-2751,-12299,-8362,1527,1171,-400,197,-438,-220
5159,161,57,31,23,28,50,41,41,6244,-2759,-12356,-8318,1565,1154,-451,240,-403,-165
5182,150,53,26,24,28,55,41,50,6197,-2775,-12424,-8246,1593,1063,-470,377,-447,-95
5203,119,48,25,25,26,50,44,50,6142,-2792,-12501,-8164,1491,1146,-504,445,-498,-35
5218,115,48,26,29,25,48,44,49,6075,-2826,-12578,-8084,1530,1306,-559,398,-597,53
5240,97,43,23,27,25,48,40,45,6009,-2879,-12641,-8016,1555,1271,-524,286,-629,105
5255,88,35,24,29,29,70,48,43,5951,-2927,-12689,-7965,1591,1288,-466,223,-570,83
5279,89,28,23,28,26,66,48,35,5899,-2970,-12728,-7927,1576,1330,-509,158,-489,81
5309,83,29,23,27,24,64,49,39,5864,-3019,-12746,-7905,1599,1292,-486,41,-393,123
5315,80,27,21,24,28,68,56,41,5845,-3070,-12748,-7897,1578,1222,-499,-63,-278,144
5346,76,26,20,25,29,75,54,42,5833,-3116,-12744,-7894,1545,1234,-516,-80,-203,154
5360,45,23,18,24,26,62,51,41,5825,-3167,-12732,-7898,1541,1231,-553,-157,-158,188
5383,36,23,18,23,27,68,52,49,5817,-3225,-12714,-7911,1506,1190,-581,-240,-139,204
5398,29,21,17,22,26,70,53,70,5801,-3291,-12695,-7926,1491,1179,-613,-285,-172,221
5420,29,22,17,21,23,67,46,76,5778,-3364,-12677,-7940,1483,1208,-619,-300,-224,249
5435,28,22,20,22,24,59,47,75,5746,-3439,-12660,-7957,1479,1239,-600,-312,-274,241
5458,26,21,21,24,27,58,46,74,5711,-3508,-12648,-7972,1521,1251,-606,-280,-285,194
5489,25,22,23,24,26,51,45,68,5682,-3560,-12639,-7985,1553,1231,-567,-214,-247,126
5495,25,22,22,24,28,63,42,47,5665,-3590,-12637,-7986,1576,1224,-556,-76,-169,64
5519,25,24,23,23,29,66,45,35,5663,-3602,-12636,-7984,1579,1236,-548,-6,-69,41
5541,24,23,23,24,27,64,43,37,5675,-3606,-12631,-7982,1598,1231,-573,8,36,38
5563,24,24,21,24,25,60,39,37,5694,-3601,-12623,-7982,1560,1218,-589,5,109,33
10,Repeat 3,,,,,,,,,,,,,,,,,
33,24,25,24,30,26,45,51,73,5738,-3596,-12600,-7991,1558,1151,-623,-56,134,21
64,24,23,23,32,28,40,53,102,5742,-3598,-12601,-7985,1514,1169,-653,-8,41,17
70,29,25,24,32,29,49,61,111,5734,-3606,-12604,-7982,1505,1224,-665,-31,-26,32
94,28,26,28,30,28,57,60,113,5718,-3622,-12605,-7985,1530,1249,-639,-78,-80,33
115,29,23,27,33,27,53,51,112,5700,-3637,-12602,-7996,1569,1248,-592,-108,-100,-1
130,29,23,25,30,32,61,50,101,5688,-3645,-12594,-8013,1595,1238,-540,-108,-61,-37
161,28,23,25,27,32,64,44,72,5689,-3646,-12582,-8031,1602,1206,-511,-99,17,-40
175,24,21,24,26,32,56,33,60,5704,-3641,-12566,-8048,1575,1189,-486,-70,89,-22
190,26,16,20,30,32,48,38,64,5731,-3633,-12548,-8060,1611,1191,-515,-44,160,2
213,24,20,22,25,31,46,37,64,5763,-3617,-12532,-8068,1601,1177,-573,-23,222,-13
235,20,24,22,23,25,35,35,95,5786,-3599,-12526,-8070,1540,1167,-593,16,189,-30
250,19,26,21,23,23,28,34,101,5800,-3589,-12524,-8068,1513,1186,-625,6,125,-4
273,20,26,23,23,24,28,34,100,5802,-3587,-12522,-8069,1529,1223,-620,-30,53,5
295,18,30,23,19,24,26,34,96,5797,-3593,-12517,-8078,1542,1214,-592,-89,6,-2
310,18,29,21,19,27,31,34,99,5787,-3602,-12511,-8090,1544,1194,-574,-114,-24,-18
334,19,26,22,20,28,30,34,56,5780,-3611,-12505,-8101,1558,1195,-555,-101,-22,-13
355,17,27,22,24,34,28,33,44,5779,-3614,-12499,-8110,1574,1207,-546,-70,8,-15
372,16,26,19,24,33,37,32,50,5782,-3611,-12491,-8121,1567,1219,-511,-52,38,-26
393,18,24,21,27,34,46,31,65,5785,-3607,-12483,-8133,1544,1195,-526,-68,55,-37
415,19,27,25,30,37,45,37,73,5787,-3604,-12478,-8141,1557,1194,-536,-50,41,-33
438,17,27,22,29,36,45,36,74,5787,-3602,-12474,-8147,1560,1217,-555,-45,29,-27
453,20,27,22,27,31,47,36,74,5783,-3604,-12471,-8154,1538,1228,-566,-61,11,-16
475,21,26,25,26,30,40,38,72,5775,-3607,-12468,-8164,1533,1199,-551,-81,-10,-30
490,18,25,23,26,29,33,33,61,5767,-3610,-12464,-8174,1544,1181,-528,-82,-19,-47
513,22,25,21,26,29,37,31,45,5763,-3612,-12460,-8182,1551,1183,-498,-51,-15,-37
544,24,23,20,27,30,40,35,64,5761,-3615,-12456,-8187,1543,1200,-511,-44,-7,-14
550,22,23,22,27,30,39,37,75,5760,-3620,-12452,-8192,1546,1191,-509,-49,-11,-8
573,22,23,20,27,32,47,38,71,5759,-3623,-12451,-8194,1553,1209,-528,-27,-5,-6
595,22,28,21,23,31,46,40,69,5759,-3623,-12451,-8194,1551,1223,-532,-12,1,-12
612,20,25,19,24,29,43,36,71,5759,-3623,-12451,-8193,1551,1221,-525,-16,12,-10
633,17,28,20,30,33,41,39,72,5762,-3624,-12448,-8196,1542,1198,-519,-24,24,-7
655,18,28,18,30,38,46,40,68,5767,-3625,-12445,-8196,1554,1189,-532,-16,31,0
678,18,27,19,37,40,42,39,69,5772,-3627,-12444,-8194,1552,1208,-547,-9,25,16
693,20,23,20,44,43,44,43,69,5778,-3632,-12440,-8193,1549,1230,-516,-12,17,40
716,19,24,22,57,48,42,46,67,5785,-3640,-12435,-8193,1561,1221,-504,-18,14,53
730,19,24,28,64,76,53,46,49,5800,-3647,-12425,-8194,1569,1202,-494,-25,52,68
753,18,26,30,69,80,58,48,43,5816,-3654,-12417,-8191,1551,1195,-508,-9,65,79
784,19,30,32,72,82,62,53,45,5835,-3663,-12409,-8187,1560,1193,-507,-5,64,96
790,17,30,33,72,84,59,48,45,5849,-3674,-12400,-8184,1556,1212,-527,-23,55,105
821,17,32,32,71,92,66,45,44,5861,-3686,-12391,-8185,1572,1212,-525,-48,45,88
835,20,30,32,70,123,76,49,42,5872,-3698,-12381,-8186,1575,1182,-524,-56,45,77
858,23,28,35,76,152,93,50,41,5886,-3712,-12374,-8181,1592,1197,-523,-22,32,104
873,21,25,32,75,158,94,44,52,5900,-3726,-12368,-8173,1577,1186,-482,11,15,114
897,21,30,32,75,185,94,46,61,5909,-3740,-12365,-8164,1553,1154,-471,18,-13,95
926,23,35,38,89,201,98,50,63,5918,-3756,-12364,-8151,1575,1152,-498,21,-21,103
933,20,35,35,91,183,87,39,63,5931,-3778,-12361,-8137,1560,1157,-526,11,-5,154
955,20,38,40,91,177,70,37,64,5946,-3798,-12356,-8125,1547,1144,-496,12,1,154
978,20,36,41,92,177,66,37,67,5966,-3812,-12350,-8112,1584,1141,-492,29,42,134
994,23,32,46,122,180,77,39,69,5990,-3815,-12344,-8101,1596,1160,-480,61,81,103
1015,24,31,43,120,189,73,34,66,6013,-3820,-12342,-8087,1627,1187,-519,68,72,116
1038,23,31,45,118,186,75,35,65,6034,-3815,-12337,-8079,1625,1205,-528,51,114,70
1060,26,43,52,127,185,99,45,63,6054,-3807,-12329,-8081,1615,1184,-508,12,133,30
1075,28,47,61,133,192,114,50,50,6080,-3805,-12315,-8084,1658,1167,-494,-20,140,61
1098,26,46,57,104,171,107,49,36,6107,-3795,-12298,-8094,1617,1149,-458,-27,181,24
1113,24,43,55,93,134,104,48,35,6135,-3776,-12283,-8104,1602,1137,-437,0,199,-10
1135,25,43,53,89,131,102,49,32,6169,-3745,-12267,-8118,1611,1160,-421,18,263,-43
1166,20,27,38,64,105,69,36,26,6207,-3698,-12250,-8136,1638,1192,-417,34,331,-107
1173,18,22,20,46,78,41,30,22,6240,-3639,-12234,-8162,1630,1198,-423,23,361,-186
1203,16,22,21,53,61,44,30,20,6272,-3570,-12216,-8193,1630,1197,-405,13,392,-244
1218,15,22,29,45,64,48,32,25,6310,-3504,-12197,-8222,1625,1178,-391,17,412,-215
1233,16,30,28,51,53,47,31,27,6361,-3434,-12172,-8249,1603,1197,-338,47,468,-174
1255,15,29,32,50,53,51,31,27,6419,-3357,-12146,-8274,1607,1188,-335,65,526,-185
1278,14,29,32,55,54,47,30,27,6483,-3267,-12119,-8300,1641,1219,-317,102,591,-222
1293,16,29,35,53,65,50,28,28,6554,-3164,-12087,-8330,1699,1271,-322,99,677,-263
1315,16,31,33,61,64,52,29,24,6633,-3047,-12048,-8368,1721,1298,-339,76,791,-314
1346,17,29,40,72,67,56,30,23,6724,-2918,-11994,-8419,1698,1328,-294,26,915,-323
1353,21,32,47,82,72,58,32,21,6819,-2780,-11935,-8473,1630,1357,-258,18,981,-321
1377,24,34,53,78,94,62,34,24,6914,-2635,-11867,-8537,1647,1372,-243,-33,1039,-374
1398,25,38,83,87,125,65,39,28,7018,-2488,-11790,-8603,1668,1300,-199,-64,1097,-398
1413,27,46,144,126,177,60,38,29,7137,-2330,-11710,-8659,1694,1302,-171,4,1198,-388
1435,30,54,152,127,187,60,38,29,7264,-2165,-11616,-8722,1658,1330,-187,-60,1318,-381
1458,28,57,169,146,239,81,39,30,7402,-1997,-11506,-8792,1579,1255,-112,-118,1404,-378
1488,29,58,175,196,314,112,50,37,7544,-1838,-11394,-8851,1552,1147,-54,-95,1392,-345
1495,29,58,170,216,387,141,53,38,7685,-1677,-11295,-8888,1509,1190,-48,26,1356,-277
1518,41,75,147,224,426,211,86,57,7824,-1538,-11205,-8906,1428,1197,20,76,1228,-127
1533,62,98,171,336,477,305,134,78,7959,-1431,-11128,-8901,1379,1129,51,118,1072,29
1557,97,148,248,369,555,461,214,126,8103,-1331,-11069,-8860,1425,1123,77,301,1019,156
1595,101,155,256,376,627,493,230,132,8257,-1192,-11002,-8820,1424,1225,245,433,1135,84
1596,106,161,260,466,756,520,242,137,8378,-1041,-10945,-8797,1362,1313,219,395,1043,-64
1631,107,167,260,482,775,531,245,138,8446,-902,-10907,-8794,1277,1399,179,300,785,-181
1638,105,170,276,470,821,537,252,139,8479,-796,-10874,-8813,1262,1432,137,110,564,-222
1670,82,134,216,464,847,421,195,107,8513,-733,-10825,-8846,1336,1393,200,-99,473,-137
1675,83,131,209,484,831,405,182,102,8548,-673,-10765,-8890,1456,1463,210,-188,522,-179
1700,83,149,241,509,743,407,185,104,8566,-592,-10704,-8953,1492,1453,297,-185,501,-391
1737,93,158,281,580,733,438,206,110,8573,-504,-10647,-9019,1510,1435,322,-154,476,-487
1738,91,151,303,607,682,433,189,104,8580,-401,-10594,-9079,1425,1437,328,-84,508,-503
1774,84,147,301,626,593,429,183,97,8589,-277,-10551,-9126,1392,1450,371,67,541,-535
1776,90,148,304,621,554,436,196,104,8592,-135,-10512,-9171,1336,1413,316,119,580,-624
1804,107,174,335,647,734,550,241,130,8597,-2,-10465,-9221,1342,1447,323,45,590,-605
1834,96,158,299,576,726,504,217,120,8598,135,-10414,-9276,1316,1477,326,20,608,-638
1841,96,151,258,533,781,481,211,117,8588,266,-10366,-9337,1247,1476,321,-20,537,-663
1871,96,152,250,528,782,481,212,118,8575,372,-10319,-9397,1203,1455,330,-77,446,-585
1886,87,149,243,504,755,459,198,108,8554,465,-10275,-9459,1200,1516,378,-103,355,-562
1901,57,90,174,355,514,266,117,65,8513,558,-10247,-9522,1122,1486,368,-58,240,-620
1923,56,85,205,354,476,266,115,64,8452,655,-10234,-9584,1026,1486,351,9,129,-667
1938,44,84,189,301,315,210,92,55,8375,752,-10242,-9635,938,1505,343,115,16,-656
1969,42,83,188,235,261,193,88,53,8276,842,-10274,-9680,866,1505,300,187,-148,-667
1976,37,83,204,225,240,170,79,51,8188,916,-10302,-9718,936,1436,369,195,-164,-617
2008,32,79,195,221,189,147,69,42,8082,971,-10346,-9754,883,1488,318,189,-328,-579
2029,29,80,161,194,175,103,51,34,7973,1008,-10393,-9790,879,1526,411,194,-436,-516
2043,29,75,161,208,162,93,47,29,7857,1027,-10453,-9818,790,1528,279,168,-526,-418
2068,28,74,161,197,171,91,45,25,7773,1008,-10496,-9841,840,1528,376,69,-520,-193
2098,32,74,145,197,162,96,47,26,7703,955,-10532,-9863,936,1581,370,-56,-553,-57
2099,31,90,140,161,162,97,48,28,7685,923,-10534,-9878,1091,1580,404,-81,-204,-15
2134,30,92,132,155,141,89,47,27,7664,916,-10540,-9888,1027,1645,356,-17,-127,-52
2142,32,97,215,194,170,110,53,27,7667,920,-10533,-9893,1054,1677,395,-10,19,-8
2171,34,102,240,200,194,132,62,32,7697,931,-10508,-9895,1109,1685,381,-57,203,38
2178,30,100,241,216,186,132,60,31,7735,956,-10480,-9893,1054,1689,347,-40,293,50
2202,31,90,242,243,189,163,69,36,7761,995,-10460,-9890,1021,1672,321,20,281,-27
2216,30,82,259,249,199,174,71,38,7784,1047,-10435,-9893,1000,1652,357,35,317,-102
2246,31,72,203,232,185,180,76,42,7795,1094,-10418,-9897,965,1644,319,29,247,-112
2284,36,65,173,261,185,175,78,46,7799,1128,-10410,-9899,879,1589,365,60,134,-64
2286,44,75,190,252,225,210,98,55,7817,1137,-10401,-9892,895,1603,361,14,108,95
2315,46,65,181,229,227,186,91,50,7841,1138,-10392,-9884,934,1620,342,-16,114,131
2321,47,62,161,236,238,173,88,50,7847,1136,-10390,-9881,949,1594,344,-10,18,62
2345,45,67,179,283,273,169,86,49,7845,1133,-10393,-9879,949,1605,317,-12,-19,37
2358,45,71,204,281,286,175,82,45,7866,1126,-10381,-9876,1017,1603,364,-50,83,100
2382,37,55,190,299,269,126,53,32,7889,1123,-10370,-9870,1012,1641,362,-45,101,111
2412,33,56,188,329,267,122,54,33,7902,1124,-10363,-9866,1022,1653,370,-14,73,63
2420,31,60,192,333,253,125,58,31,7916,1126,-10356,-9863,1036,1665,359,-26,80,56
2457,32,56,170,298,245,126,55,30,7930,1136,-10346,-9860,1017,1650,377,-5,106,36
2459,29,50,126,297,253,116,55,31,7944,1149,-10337,-9857,988,1646,368,1,118,32
2488,33,53,119,279,268,127,61,35,7952,1158,-10330,-9857,956,1632,362,-12,74,29
2517,33,57,133,296,273,135,61,37,7955,1158,-10329,-9856,942,1627,355,-18,11,58
2525,36,56,132,290,308,143,64,39,7955,1154,-10327,-9858,936,1629,374,-26,-17,56
2562,34,59,133,305,309,140,63,40,7957,1141,-10326,-9859,939,1583,394,-37,-49,77
2564,33,63,168,280,273,129,59,36,7956,1125,-10328,-9860,953,1608,377,-43,-73,89
2593,30,66,187,270,242,122,56,33,7947,1101,-10337,-9861,976,1598,369,-38,-141,81
2598,31,62,178,211,232,109,52,30,7922,1071,-10361,-9859,1016,1598,311,-12,-236,39
2622,27,61,168,188,170,90,41,26,7865,1036,-10409,-9857,989,1593,218,34,-413,-26
2636,25,65,202,111,97,59,31,21,7774,981,-10478,-9862,945,1571,259,63,-678,-66
2658,27,66,182,99,87,61,31,23,7678,916,-10544,-9873,993,1576,292,34,-741,-83
2682,25,67,160,82,77,49,27,21,7586,840,-10601,-9890,1020,1596,303,-42,-743,-58
2696,23,74,161,63,60,48,28,20,7498,756,-10654,-9907,984,1595,292,-72,-749,1
2719,21,77,166,62,62,53,32,19,7423,664,-10702,-9918,973,1596,300,-86,-726,99
2757,21,71,114,46,60,55,33,19,7369,558,-10744,-9920,999,1610,336,-93,-686,240
2758,17,63,100,38,65,53,32,18,7336,445,-10772,-9919,1077,1621,277,-173,-582,322
2786,17,57,90,36,64,56,31,18,7312,322,-10791,-9921,1119,1594,215,-265,-538,361
2801,17,44,80,31,62,51,29,19,7288,192,-10806,-9927,1102,1559,220,-309,-559,383
2824,19,34,52,29,58,49,25,21,7255,51,-10826,-9930,1034,1509,166,-324,-635,428
2838,21,33,44,25,45,45,26,23,7203,-106,-10865,-9925,945,1421,103,-287,-789,463
2862,20,32,40,26,33,49,26,21,7130,-276,-10932,-9900,893,1346,82,-148,-990,499
2891,20,30,49,29,46,56,29,22,7044,-476,-11016,-9862,1061,1362,179,-65,-1210,542
2898,20,29,54,29,49,58,29,23,6986,-667,-11072,-9829,1358,1509,115,-172,-982,529
2930,21,34,53,27,47,54,28,22,6947,-858,-11119,-9789,1406,1497,130,-162,-898,606
2943,20,32,50,33,60,63,29,21,6908,-1041,-11175,-9735,1324,1430,162,-37,-921,637
2967,21,29,46,32,60,64,29,23,6882,-1233,-11226,-9672,1226,1364,283,29,-952,777
2980,21,29,34,30,53,58,28,23,6888,-1432,-11264,-9596,1280,1364,237,19,-817,942
3004,23,29,26,30,51,57,29,23,6908,-1623,-11296,-9513,1518,1349,171,32,-706,895
3018,21,23,25,31,54,58,30,24,6939,-1763,-11324,-9432,1755,1390,169,140,-490,679
3042,24,23,20,26,43,51,27,23,6968,-1836,-11356,-9357,1764,1483,107,264,-272,445
3079,25,25,20,24,39,45,36,61,6998,-1862,-11379,-9302,1684,1563,31,248,-61,291
3081,25,26,18,23,37,41,46,93,7025,-1890,-11393,-9258,1569,1517,-29,148,-28,304
3116,24,30,19,23,36,42,55,124,7043,-1933,-11411,-9214,1470,1416,-77,108,-104,338
3123,27,37,16,21,31,45,57,129,7043,-1987,-11438,-9170,1400,1335,-117,85,-222,315
3145,27,38,19,22,27,48,57,130,7024,-2051,-11476,-9122,1408,1257,-146,89,-350,271
3160,27,37,23,21,25,41,51,116,6981,-2122,-11533,-9066,1410,1216,-192,145,-510,215
3183,27,35,23,26,25,40,39,94,6910,-2201,-11605,-9011,1433,1246,-258,134,-657,160
3198,30,33,23,33,26,44,28,46,6826,-2288,-11680,-8955,1463,1227,-303,108,-743,131
3220,30,24,26,36,27,43,29,35,6737,-2384,-11751,-8905,1497,1238,-312,57,-784,136
3251,28,23,28,37,24,40,29,45,6639,-2487,-11825,-8852,1594,1297,-314,69,-866,136
3258,30,23,25,38,24,40,32,70,6533,-2603,-11906,-8789,1619,1322,-257,134,-1007,180
3282,52,25,25,35,24,44,48,81,6427,-2713,-11985,-8726,1593,1301,-221,166,-1013,167
3303,54,24,25,30,27,48,58,86,6322,-2798,-12065,-8666,1498,1276,-252,212,-928,88
3319,83,30,25,29,29,54,60,92,6224,-2875,-12147,-8597,1512,1204,-323,258,-874,57
3340,126,34,21,26,31,61,64,89,6133,-2957,-12222,-8527,1528,1283,-407,228,-833,135
3363,157,38,23,27,35,62,66,88,6046,-3050,-12289,-8460,1604,1285,-414,187,-847,170
3385,178,49,27,29,35,69,70,87,5948,-3153,-12347,-8407,1632,1328,-479,60,-873,174
3400,182,51,26,28,33,65,65,83,5836,-3258,-12401,-8366,1520,1304,-459,-3,-929,153
3423,173,47,24,27,32,70,65,79,5714,-3353,-12465,-8317,1558,1283,-487,65,-979,57
3438,145,45,24,27,32,62,62,75,5601,-3435,-12518,-8282,1603,1308,-481,24,-891,10
3460,110,42,22,24,27,64,62,62,5509,-3501,-12560,-8252,1665,1296,-502,36,-739,-24
3491,62,25,18,21,25,57,52,73,5443,-3556,-12583,-8238,1672,1289,-456,-22,-568,-12
3498,45,24,20,25,29,73,55,87,5389,-3610,-12594,-8232,1556,1227,-494,-92,-453,34
3522,35,23,17,26,28,69,54,91,5331,-3678,-12605,-8223,1476,1189,-539,-130,-487,96
3543,33,22,19,26,26,68,57,95,5271,-3753,-12609,-8221,1497,1259,-559,-183,-496,142
3559,33,26,21,27,26,68,57,111,5219,-3824,-12612,-8217,1543,1265,-607,-169,-442,139
3580,31,27,20,28,24,68,55,104,5177,-3877,-12618,-8211,1566,1289,-618,-109,-359,86
3603,31,29,23,23,22,62,58,111,5145,-3913,-12620,-8210,1533,1274,-582,-86,-268,48
3625,30,31,23,25,22,56,58,113,5120,-3947,-12621,-8209,1506,1215,-580,-79,-223,45
3640,29,29,22,24,22,58,55,114,5101,-3978,-12623,-8203,1497,1169,-598,-57,-197,41
3671,27,25,20,23,23,63,51,96,5084,-4009,-12625,-8194,1499,1183,-618,-44,-183,58
3678,32,30,25,27,28,72,62,200,5070,-4039,-12628,-8184,1503,1219,-612,-23,-176,77
3702,31,28,22,26,26,64,65,204,5056,-4069,-12631,-8174,1501,1200,-646,-31,-167,75
3731,30,25,23,24,25,63,64,202,5037,-4098,-12641,-8155,1486,1179,-680,10,-193,59
3745,29,25,26,25,27,62,65,199,5014,-4127,-12656,-8131,1489,1208,-712,33,-219,62
3769,31,25,25,25,27,57,68,208,4990,-4160,-12667,-8111,1504,1247,-718,10,-227,79
3783,23,19,22,19,22,41,58,158,4971,-4189,-12674,-8098,1541,1262,-721,-14,-185,75
3805,24,21,20,21,22,35,47,142,4960,-4206,-12678,-8090,1551,1282,-699,-1,-114,39
3820,25,21,21,21,23,35,42,140,4961,-4210,-12675,-8091,1570,1294,-657,-3,-25,10
3843,27,21,19,21,24,49,49,143,4975,-4200,-12670,-8096,1565,1275,-632,17,73,-18
3874,26,24,17,21,25,48,49,132,5001,-4179,-12663,-8102,1545,1229,-641,32,170,-50
3880,26,25,16,21,27,50,50,80,5029,-4155,-12658,-8104,1523,1169,-668,40,196,-66
3903,24,27,18,20,26,50,49,91,5059,-4131,-12653,-8104,1496,1188,-684,52,211,-41
3925,23,29,18,19,25,54,50,105,5084,-4113,-12646,-8110,1490,1233,-697,5,198,-14
3948,21,31,17,18,22,41,55,107,5106,-4099,-12637,-8118,1504,1227,-697,-27,178,-11
3963,20,30,19,20,22,38,51,112,5123,-4087,-12629,-8124,1494,1197,-691,-28,146,-24
14,Repeat 4,,,,,,,,,,,,,,,,,
36,16,28,20,22,19,32,48,85,5148,-4072,-12621,-8129,1505,1231,-666,-10,89,2
51,15,28,19,25,20,28,48,87,5162,-4064,-12616,-8131,1530,1251,-650,4,96,-2
74,17,27,21,28,24,42,46,125,5178,-4053,-12609,-8138,1519,1228,-626,-11,117,-19
89,21,27,22,27,24,52,55,137,5191,-4046,-12606,-8138,1489,1165,-680,-9,104,-17
113,20,26,23,28,23,58,54,139,5198,-4048,-12604,-8135,1481,1179,-679,-14,49,14
142,20,23,24,28,24,59,55,140,5199,-4059,-12600,-8136,1479,1222,-666,-51,-2,55
150,23,20,23,26,24,56,53,143,5193,-4076,-12592,-8144,1490,1236,-647,-106,-36,55
179,21,20,23,24,23,46,46,109,5185,-4089,-12584,-8153,1500,1226,-630,-99,-41,25
194,17,21,22,23,25,36,33,87,5182,-4097,-12579,-8159,1527,1224,-624,-62,-23,6
210,19,25,20,23,27,25,32,85,5183,-4103,-12576,-8161,1527,1213,-624,-33,-4,11
231,20,25,20,21,27,24,32,83,5189,-4108,-12572,-8161,1516,1200,-621,-17,16,27
254,19,29,23,20,27,32,33,80,5196,-4114,-12567,-8162,1515,1210,-647,-32,32,35
269,21,35,20,19,27,30,32,95,5202,-4120,-12558,-8167,1549,1240,-647,-60,38,33
291,23,37,21,20,25,31,29,95,5205,-4126,-12550,-8175,1538,1240,-656,-77,32,25
314,22,35,23,19,26,34,31,95,5207,-4130,-12542,-8184,1531,1241,-641,-71,30,12
329,22,36,22,18,24,38,31,97,5211,-4132,-12535,-8192,1517,1208,-610,-60,33,2
353,20,34,19,17,23,34,31,87,5216,-4131,-12530,-8196,1516,1193,-622,-33,44,-12
382,21,29,21,21,23,37,31,71,5222,-4128,-12528,-8197,1517,1195,-627,-8,47,-13
390,18,23,19,20,23,35,33,89,5226,-4127,-12528,-8195,1509,1208,-633,0,29,-1
419,18,23,18,22,22,39,34,99,5227,-4129,-12524,-8200,1504,1209,-615,-40,18,-1
434,17,20,21,22,23,38,32,100,5226,-4133,-12520,-8204,1530,1214,-627,-52,3,0
456,18,20,22,23,24,35,31,94,5224,-4138,-12516,-8209,1531,1214,-637,-62,2,-4
471,17,21,22,19,22,34,28,91,5222,-4143,-12512,-8213,1520,1223,-632,-50,0,7
494,19,24,23,21,22,37,26,110,5222,-4148,-12509,-8216,1516,1217,-607,-36,0,11
509,20,23,22,19,20,38,29,101,5223,-4150,-12507,-8217,1518,1196,-608,-21,1,-4
533,21,26,19,19,21,36,29,100,5222,-4150,-12507,-8218,1521,1207,-609,-14,5,-18
562,22,27,19,19,19,37,30,99,5221,-4152,-12507,-8219,1525,1221,-634,-22,0,-6
569,21,25,18,20,18,36,35,111,5218,-4159,-12505,-8219,1527,1225,-628,-30,-19,16
593,21,24,19,20,18,31,36,89,5215,-4167,-12504,-8218,1525,1219,-630,-31,-30,19
614,20,25,20,22,18,28,30,87,5208,-4174,-12505,-8218,1508,1211,-628,-34,-38,4
636,19,22,19,22,17,28,30,85,5200,-4182,-12504,-8220,1510,1215,-616,-45,-47,2
659,17,21,19,21,18,31,30,83,5196,-4193,-12500,-8224,1526,1202,-601,-53,-40,14
674,18,23,20,23,19,34,26,74,5193,-4203,-12495,-8228,1523,1204,-595,-59,-30,24
696,18,22,20,23,22,34,30,64,5194,-4213,-12489,-8231,1521,1193,-573,-40,-23,28
711,18,19,19,22,23,33,30,64,5196,-4221,-12487,-8230,1522,1207,-595,-17,-16,32
734,17,23,20,23,24,33,32,65,5199,-4227,-12484,-8229,1525,1220,-586,-8,-8,32
764,21,26,20,23,24,32,40,96,5201,-4231,-12482,-8228,1521,1219,-607,-10,-1,26
771,21,26,20,22,24,32,42,94,5203,-4235,-12481,-8227,1518,1209,-607,-7,0,20
802,21,26,20,21,21,35,39,84,5207,-4240,-12480,-8223,1527,1203,-610,6,3,29
816,20,27,22,21,22,36,39,83,5215,-4244,-12479,-8217,1531,1206,-602,21,11,39
831,20,26,22,21,20,40,38,83,5225,-4244,-12476,-8215,1546,1223,-592,19,42,31
854,17,22,21,21,22,39,28,44,5242,-4239,-12471,-8215,1539,1212,-575,26,80,23
876,16,24,21,21,24,37,25,32,5264,-4229,-12466,-8214,1544,1214,-582,45,123,23
893,17,28,31,28,34,42,28,32,5298,-4210,-12458,-8214,1554,1231,-545,74,188,20
914,18,27,31,35,46,62,38,34,5347,-4176,-12443,-8221,1591,1280,-515,92,309,10
937,19,26,34,36,51,77,40,34,5428,-4122,-12410,-8246,1654,1320,-429,74,517,4
951,22,30,36,37,51,76,40,32,5541,-4044,-12355,-8291,1691,1343,-343,36,767,-8
975,21,27,35,38,53,77,40,31,5677,-3940,-12287,-8351,1705,1322,-318,9,985,-78
996,21,35,32,37,53,77,39,29,5833,-3809,-12213,-8413,1716,1262,-335,36,1192,-160
1013,21,36,39,52,76,86,40,26,6017,-3648,-12135,-8467,1734,1273,-341,132,1410,-186
1034,23,50,66,75,117,98,49,30,6223,-3461,-12041,-8529,1778,1279,-347,113,1659,-197
1056,20,54,95,77,122,107,52,32,6453,-3250,-11927,-8603,1837,1312,-421,72,1901,-237
1087,24,56,107,93,155,134,63,34,6685,-3016,-11800,-8685,1764,1279,-404,53,2022,-316
1102,26,65,148,135,172,150,68,38,6908,-2778,-11669,-8767,1667,1334,-350,37,2009,-354
1117,27,72,172,139,170,140,63,38,7105,-2557,-11538,-8849,1675,1350,-314,-28,1858,-358
1131,33,66,168,132,149,128,56,32,7268,-2342,-11411,-8941,1654,1346,-281,-108,1705,-465
1154,36,63,174,138,164,128,58,29,7400,-2126,-11308,-9016,1605,1279,-226,-54,1594,-572
1185,39,62,194,134,136,104,48,27,7494,-1930,-11218,-9096,1430,1200,-165,-106,1349,-617
1191,41,47,174,101,119,90,43,23,7573,-1763,-11136,-9164,1424,1154,-70,-97,1148,-555
1225,42,36,167,97,132,101,47,26,7638,-1609,-11070,-9218,1313,1176,1,-16,980,-490
1260,37,36,188,91,131,105,48,25,7687,-1467,-11021,-9260,1325,1207,88,65,807,-468
1262,35,36,212,87,113,99,45,27,7726,-1334,-10979,-9297,1319,1264,155,94,696,-451
1292,30,48,221,85,112,104,49,28,7753,-1210,-10947,-9330,1330,1326,128,91,612,-431
1298,25,62,234,84,110,109,51,34,7776,-1095,-10908,-9370,1373,1384,195,34,577,-435
1329,22,64,226,78,83,109,51,31,7785,-986,-10877,-9411,1338,1430,217,42,479,-444
1367,22,67,221,84,78,108,50,31,7771,-877,-10852,-9462,1311,1482,203,-1,386,-527
1368,22,71,196,89,100,122,51,31,7751,-772,-10824,-9519,1335,1441,255,-26,351,-587
1380,20,65,170,101,101,119,48,30,7762,-655,-10777,-9573,1343,1423,319,-15,539,-546
1394,20,53,169,99,110,110,44,28,7787,-529,-10730,-9612,1292,1433,294,54,632,-478
1418,19,55,196,102,135,108,40,27,7821,-394,-10685,-9641,1252,1458,288,103,690,-445
1432,20,63,200,101,146,118,44,29,7849,-263,-10642,-9670,1190,1507,258,86,661,-418
1454,20,73,230,93,145,133,50,30,7868,-145,-10598,-9706,1160,1510,325,45,568,-415
1476,19,73,231,83,145,132,51,30,7878,-26,-10556,-9745,1161,1540,249,-1,573,-465
1493,20,83,239,84,141,134,51,28,7878,92,-10517,-9786,1123,1540,215,-21,535,-495
1514,20,88,238,95,126,134,50,30,7867,201,-10487,-9825,1079,1499,281,25,418,-502
1536,19,81,229,104,137,120,47,28,7862,310,-10460,-9855,1035,1530,307,77,419,-439
1553,20,72,193,108,158,127,50,29,7865,409,-10435,-9876,1060,1548,289,68,427,-374
1574,20,75,215,100,157,122,47,28,7858,500,-10417,-9896,1004,1534,305,92,336,-358
1596,22,74,221,103,195,128,50,30,7845,582,-10406,-9913,978,1556,321,101,259,-331
1611,23,75,202,125,234,155,61,41,7835,649,-10390,-9934,1014,1588,370,51,224,-294
1642,23,72,200,154,241,173,64,44,7843,716,-10364,-9950,1026,1603,341,11,326,-234
1665,23,76,217,171,227,147,55,42,7843,770,-10342,-9969,990,1630,340,-25,241,-196
1679,26,80,244,182,239,158,58,43,7835,811,-10329,-9986,964,1586,327,-22,152,-179
1695,25,116,236,212,230,169,65,43,7834,849,-10312,-10001,899,1576,357,-22,160,-120
1741,27,114,237,200,200,137,53,33,7847,876,-10299,-10002,892,1564,369,10,164,-2
1742,29,119,233,198,212,116,51,31,7855,904,-10289,-10003,865,1593,406,35,129,2
1778,30,116,224,205,216,124,55,36,7876,928,-10270,-10004,918,1585,408,-5,191,33
1780,29,118,163,230,229,124,56,36,7909,958,-10247,-9999,955,1603,399,3,275,52
1807,32,86,139,243,219,101,46,35,7938,990,-10229,-9992,914,1621,413,36,247,56
1816,32,84,140,244,217,103,47,33,7966,1020,-10211,-9984,959,1648,402,24,246,58
1838,36,79,137,261,261,146,61,39,7985,1045,-10198,-9980,942,1648,400,13,183,40
1876,36,79,157,275,298,145,58,37,8006,1062,-10180,-9979,960,1585,431,-16,175,33
1881,36,67,189,270,305,155,61,38,8030,1077,-10165,-9974,993,1595,430,-1,171,57
1920,37,66,248,282,331,167,66,39,8057,1097,-10149,-9966,1003,1614,425,11,205,50
1922,42,67,247,302,340,180,74,49,8079,1117,-10138,-9957,999,1608,410,28,185,43
1949,38,66,253,280,296,148,62,44,8094,1133,-10129,-9952,969,1623,415,11,134,40
1956,37,63,233,256,279,155,65,43,8102,1145,-10124,-9950,961,1621,418,2,77,26
1987,43,71,222,250,289,148,67,43,8110,1154,-10118,-9947,969,1613,415,-1,79,30
2018,46,60,145,207,272,140,67,44,8116,1159,-10113,-9948,962,1599,423,-20,48,24
2019,41,58,138,211,280,149,65,35,8121,1159,-10108,-9948,988,1602,442,-20,28,36
2047,44,59,140,212,314,167,75,39,8128,1162,-10099,-9952,971,1594,464,-32,45,23
2054,48,74,154,248,302,172,77,41,8127,1159,-10097,-9955,967,1581,434,-30,-13,15
2086,44,81,139,249,281,167,77,40,8128,1161,-10095,-9956,992,1617,444,-12,11,17
2115,46,84,141,266,289,199,89,47,8126,1160,-10092,-9962,980,1608,454,-32,-11,-2
2121,46,83,149,317,277,193,89,48,8130,1162,-10084,-9966,958,1578,475,-27,24,18
2160,44,84,140,331,303,184,86,47,8137,1160,-10078,-9966,955,1598,454,-30,25,60
2162,44,72,140,372,381,185,87,49,8144,1159,-10073,-9966,989,1598,468,-18,27,42
2198,44,58,166,393,394,191,85,50,8149,1159,-10069,-9966,993,1597,467,-11,19,28
2200,34,63,176,394,378,151,68,41,8158,1162,-10064,-9963,1007,1644,431,-25,62,46
2220,34,70,178,353,393,141,62,41,8164,1163,-10059,-9963,1006,1633,432,-34,44,36
2234,33,70,194,393,361,153,64,42,8163,1164,-10059,-9963,966,1608,431,-15,8,8
2258,30,72,184,373,275,137,59,36,8158,1162,-10062,-9965,969,1582,419,-18,-26,4
2295,38,74,204,399,333,153,69,40,8157,1157,-10063,-9965,991,1587,437,-17,-23,27
2297,47,91,213,418,330,182,85,48,8158,1150,-10064,-9964,987,1596,470,-10,-30,53
2326,49,91,217,418,317,187,87,46,8166,1148,-10062,-9960,1005,1612,469,0,18,59
2339,48,98,216,370,298,174,84,44,8172,1148,-10059,-9958,989,1611,468,-3,24,47
2370,58,115,220,357,331,186,89,49,8167,1149,-10065,-9956,962,1588,435,18,-33,12
2377,60,130,182,303,344,197,86,49,8160,1151,-10069,-9958,972,1597,442,9,-30,-8
2407,54,118,158,287,354,180,74,47,8151,1149,-10073,-9961,961,1591,426,-15,-54,0
2430,52,114,141,277,347,169,70,46,8135,1135,-10087,-9962,961,1587,415,-3,-136,25
2437,55,109,115,282,350,172,68,46,8113,1117,-10105,-9963,950,1603,420,2,-188,28
2477,41,91,96,257,323,165,65,41,8097,1096,-10112,-9971,1001,1616,468,-53,-164,18
2479,30,68,71,238,207,120,53,33,8086,1068,-10111,-9985,1042,1612,449,-124,-135,19
2506,27,63,73,184,183,100,46,25,8064,1038,-10118,-9998,1020,1581,420,-106,-194,1
2527,27,72,79,155,159,99,46,25,8015,1010,-10151,-10007,954,1589,346,-22,-348,-47
2534,20,72,84,117,130,83,42,22,7907,960,-10226,-10022,867,1591,243,27,-726,-139
2564,20,69,93,60,73,69,43,25,7748,883,-10324,-10052,785,1572,239,9,-1076,-221
2579,20,67,109,62,66,63,40,25,7587,777,-10416,-10089,834,1526,314,-62,-1189,-188
2602,20,62,110,58,52,62,38,25,7443,659,-10502,-10115,915,1521,331,-62,-1164,-92
2617,20,56,103,56,51,61,36,24,7324,532,-10584,-10125,952,1484,304,-41,-1077,42
2639,20,51,121,55,51,63,36,24,7230,399,-10657,-10122,1001,1459,371,-6,-1009,158
2670,22,81,150,47,46,50,25,23,7180,274,-10708,-10107,1273,1612,402,-20,-757,244
2677,21,81,141,43,42,47,25,22,7167,177,-10732,-10093,1370,1621,343,-77,-441,228
2709,31,86,140,40,42,44,24,21,7157,111,-10755,-10077,1299,1666,288,-17,-313,186
2722,30,85,146,43,41,42,26,21,7143,71,-10785,-10055,1200,1649,277,89,-262,132
2738,32,100,136,41,39,37,27,21,7118,46,-10821,-10034,1119,1620,247,136,-264,65
2767,31,82,108,37,39,39,20,17,7087,19,-10852,-10023,1137,1642,310,111,-305,33
2782,32,97,111,37,42,46,24,19,7064,-5,-10874,-10015,1247,1714,215,27,-204,12
2812,23,94,108,34,40,47,24,19,7048,-29,-10882,-10017,1253,1638,229,-40,-153,-16
2819,29,97,101,29,40,46,22,21,7036,-49,-10891,-10017,1189,1555,243,-7,-136,-3
2842,33,79,87,25,36,42,20,21,7032,-68,-10898,-10012,1093,1526,234,0,-102,70
2857,33,77,73,20,35,38,20,21,7034,-94,-10907,-10000,1009,1464,204,14,-103,146
2879,32,59,78,21,30,30,18,18,7034,-134,-10927,-9978,959,1400,164,41,-179,226
2925,31,57,78,24,30,45,20,16,7028,-193,-10964,-9941,890,1353,138,105,-313,332
2927,25,48,83,23,28,49,22,18,7016,-285,-11019,-9886,842,1330,118,154,-489,498
2948,19,52,88,25,28,48,22,18,6996,-423,-11097,-9808,896,1304,42,180,-711,681
2963,19,49,82,26,23,46,24,20,6968,-600,-11181,-9722,1134,1333,35,148,-881,739
2994,21,43,66,23,25,45,24,21,6929,-792,-11273,-9630,1305,1399,48,177,-1006,747
2999,34,45,63,21,24,31,21,24,6879,-994,-11371,-9531,1390,1469,21,191,-1103,771
3030,43,48,48,21,24,22,19,23,6821,-1209,-11464,-9436,1437,1495,-2,139,-1167,795
3037,45,52,35,20,23,21,18,23,6771,-1430,-11548,-9338,1495,1450,8,132,-1157,843
3060,50,58,34,19,21,19,19,23,6731,-1639,-11624,-9238,1594,1463,-7,153,-1067,819
3081,50,56,31,22,17,19,20,22,6696,-1810,-11694,-9142,1647,1507,-70,196,-907,697
3097,46,54,31,22,17,18,21,20,6667,-1937,-11755,-9059,1692,1518,-74,237,-731,516
3119,38,53,30,24,17,24,20,19,6642,-2019,-11804,-8996,1660,1527,-135,205,-512,333
3141,38,46,27,23,21,39,25,24,6624,-2070,-11838,-8953,1602,1485,-180,145,-333,211
3157,34,34,20,24,23,43,28,26,6615,-2105,-11860,-8922,1573,1427,-213,88,-203,146
3179,49,33,21,22,22,44,26,27,6606,-2135,-11876,-8900,1542,1402,-249,36,-153,106
3202,52,30,21,22,22,44,26,27,6594,-2162,-11889,-8886,1510,1378,-234,4,-150,85
3216,51,27,20,22,25,48,28,34,6578,-2198,-11904,-8868,1461,1306,-261,-1,-192,105
3239,54,26,20,20,23,40,26,43,6560,-2245,-11926,-8840,1425,1269,-269,27,-251,163
3261,64,24,21,20,22,37,24,59,6542,-2302,-11951,-8805,1486,1313,-304,38,-292,215
3276,59,24,20,21,24,37,29,64,6516,-2365,-11979,-8769,1509,1315,-329,30,-347,220
3307,54,22,20,21,23,39,29,64,6481,-2436,-12009,-8734,1475,1293,-316,14,-419,223
3321,55,20,21,19,20,31,27,61,6434,-2511,-12043,-8702,1402,1287,-277,16,-508,225
3338,53,17,22,20,18,44,27,53,6374,-2595,-12080,-8669,1402,1275,-282,6,-596,222
3359,37,16,21,23,19,46,26,36,6313,-2691,-12109,-8645,1458,1262,-266,-72,-631,229
3381,27,16,21,24,18,47,29,34,6262,-2788,-12129,-8623,1574,1249,-275,-101,-584,233
3396,43,16,23,29,19,55,30,48,6230,-2875,-12143,-8598,1639,1234,-290,-66,-466,230
3419,71,17,22,29,23,87,48,57,6210,-2951,-12161,-8561,1583,1165,-359,6,-380,245
3450,71,20,24,30,21,91,53,56,6195,-3029,-12191,-8503,1504,1055,-400,112,-390,286
3456,72,22,25,31,22,91,54,56,6172,-3115,-12236,-8422,1486,1092,-461,214,-485,360
3479,72,21,24,30,23,104,54,51,6134,-3209,-12285,-8342,1483,1252,-475,216,-583,420
3501,66,22,24,26,23,100,54,43,6089,-3311,-12321,-8284,1559,1346,-482,77,-601,422
3516,32,22,26,26,20,77,42,33,6043,-3413,-12344,-8242,1643,1297,-499,-30,-570,363
3540,29,19,22,26,21,68,35,33,5994,-3499,-12362,-8213,1696,1289,-507,-67,-519,248
3561,52,22,21,24,20,66,35,39,5946,-3567,-12379,-8194,1640,1240,-501,-71,-453,153
3584,56,23,22,22,18,61,35,42,5904,-3625,-12396,-8172,1619,1204,-502,-35,-410,126
3599,54,25,21,23,18,61,40,36,5870,-3677,-12413,-8148,1644,1200,-528,-4,-355,123
3621,63,27,20,24,21,58,44,45,5845,-3722,-12427,-8125,1660,1226,-521,14,-301,129
3644,75,28,20,23,22,57,50,63,5825,-3762,-12437,-8105,1636,1230,-533,11,-250,129
3666,63,24,19,22,22,61,55,101,5800,-3795,-12449,-8089,1602,1225,-542,5,-239,88
3681,62,25,19,22,25,42,51,118,5765,-3825,-12465,-8075,1567,1203,-590,-12,-266,40
3704,62,24,19,22,25,41,48,119,5726,-3853,-12482,-8064,1567,1196,-596,-29,-277,10
3719,53,21,19,21,24,40,47,116,5686,-3880,-12496,-8057,1560,1203,-566,-38,-277,-2
3757,61,29,17,19,26,44,45,117,5652,-3908,-12506,-8053,1574,1165,-532,-45,-267,2
3764,59,31,19,21,29,38,40,88,5623,-3930,-12516,-8047,1588,1161,-537,-24,-238,-11
3779,58,30,19,20,26,37,41,65,5599,-3948,-12529,-8033,1616,1174,-547,36,-222,-11
3801,58,29,18,21,26,39,41,64,5579,-3962,-12541,-8021,1627,1201,-567,41,-183,-13
3824,57,28,19,20,23,38,42,64,5568,-3973,-12546,-8017,1604,1180,-562,2,-117,-8
3839,29,23,20,20,20,31,36,46,5563,-3983,-12549,-8010,1589,1099,-623,-11,-57,-11
3863,26,22,19,20,16,30,36,40,5556,-3990,-12556,-8001,1548,1114,-630,14,-63,-13
3884,23,23,19,21,17,34,40,39,5545,-4004,-12563,-7991,1541,1152,-660,-7,-88,27
3899,25,23,20,20,16,32,41,73,5531,-4025,-12567,-7984,1545,1163,-662,-37,-113,47
3921,32,26,20,21,17,32,42,97,5512,-4048,-12572,-7977,1570,1162,-677,-56,-144,35
3944,32,22,20,22,19,33,46,134,5486,-4073,-12579,-7971,1567,1165,-673,-56,-181,20
3959,33,25,21,23,19,34,46,140,5453,-4101,-12588,-7965,1557,1157,-686,-73,-224,14
3981,33,24,20,22,20,35,42,140,5417,-4132,-12597,-7959,1572,1181,-667,-72,-252,23
4004,31,24,21,24,22,42,42,132,5382,-4161,-12603,-7958,1570,1175,-652,-88,-247,7
4026,26,21,20,23,22,47,38,120,5352,-4183,-12609,-7958,1583,1165,-625,-65,-216,-20
4041,26,23,19,22,22,46,35,75,5328,-4199,-12616,-7955,1568,1136,-604,-27,-186,-31
4064,25,20,19,20,23,44,35,61,5311,-4211,-12621,-7952,1567,1153,-586,-6,-153,-25
4,Repeat 5,,,,,,,,,,,,,,,,,
27,21,21,19,18,21,41,35,79,5304,-4218,-12625,-7946,1582,1165,-593,28,-34,-14
49,17,23,19,17,22,35,31,84,5313,-4213,-12626,-7942,1566,1144,-632,46,27,-20
66,20,21,21,19,22,32,32,87,5325,-4204,-12626,-7938,1559,1144,-654,39,68,-20
87,19,20,21,19,21,34,28,89,5339,-4195,-12623,-7938,1547,1179,-656,31,89,-7
109,19,20,20,21,19,28,31,88,5352,-4185,-12619,-7941,1556,1178,-677,1,104,-15
124,19,24,19,22,20,27,28,63,5365,-4177,-12615,-7942,1576,1153,-697,-6,98,-27
147,20,22,20,26,21,31,28,61,5374,-4172,-12612,-7943,1557,1140,-699,-15,81,-18
169,19,23,20,30,20,46,40,98,5381,-4170,-12609,-7945,1550,1156,-707,-31,66,-6
184,20,25,23,31,20,60,52,101,5385,-4171,-12604,-7949,1556,1156,-698,-50,50,2
207,22,27,25,31,19,65,49,107,5386,-4171,-12601,-7953,1533,1145,-696,-50,38,-15
229,23,25,27,33,19,65,50,110,5382,-4174,-12601,-7954,1532,1163,-685,-33,-7,-8
244,24,24,27,31,18,65,50,104,5374,-4180,-12602,-7956,1556,1196,-661,-32,-41,-1
268,23,25,26,25,19,57,43,102,5368,-4185,-12600,-7959,1557,1180,-636,-34,-35,-8
289,23,24,26,25,19,42,33,109,5363,-4184,-12600,-7964,1528,1169,-627,-22,-17,-30
304,22,20,23,24,20,32,32,102,5364,-4182,-12600,-7964,1543,1138,-629,-4,1,-29
327,21,19,21,20,20,32,34,101,5365,-4182,-12600,-7964,1543,1161,-620,7,-2,-8
349,18,22,20,21,20,31,34,108,5365,-4182,-12600,-7964,1533,1170,-628,0,1,6
364,17,22,19,21,22,31,34,92,5365,-4183,-12600,-7964,1563,1179,-655,-12,1,0
387,21,23,19,22,24,28,31,86,5365,-4183,-12600,-7963,1557,1169,-657,-8,9,-8
409,21,24,20,21,24,32,34,88,5367,-4181,-12601,-7961,1559,1188,-668,8,16,-6
440,23,24,18,21,23,30,31,89,5370,-4179,-12600,-7961,1559,1191,-664,-1,24,-5
447,22,23,17,18,24,33,36,93,5371,-4178,-12600,-7962,1554,1168,-691,-18,24,-16
469,22,26,18,19,21,32,37,83,5369,-4180,-12601,-7961,1541,1162,-692,-24,5,-6
492,18,29,17,19,18,34,38,79,5364,-4188,-12599,-7963,1554,1180,-667,-46,-26,11
515,19,28,16,21,20,37,37,77,5355,-4201,-12595,-7968,1524,1166,-674,-79,-45,21
529,17,28,17,23,21,40,37,87,5344,-4216,-12589,-7977,1521,1158,-657,-110,-59,24
552,17,35,17,24,19,39,33,83,5333,-4237,-12583,-7984,1534,1132,-634,-109,-85,32
567,19,31,19,24,21,38,32,77,5319,-4257,-12577,-7990,1533,1165,-628,-99,-101,39
589,19,30,19,23,25,44,35,73,5305,-4281,-12570,-7998,1552,1175,-621,-113,-114,52
612,19,32,19,22,26,46,35,78,5297,-4303,-12560,-8008,1583,1167,-610,-114,-84,48
627,19,32,20,20,26,48,37,85,5292,-4323,-12551,-8015,1567,1146,-619,-97,-60,46
649,19,26,21,20,28,46,36,89,5293,-4338,-12544,-8017,1563,1134,-619,-60,-36,44
680,18,29,21,20,27,49,34,90,5299,-4345,-12542,-8013,1589,1161,-666,-5,8,34
687,19,29,21,19,25,46,32,98,5303,-4346,-12541,-8010,1562,1184,-680,6,24,23
709,20,30,23,19,25,41,34,95,5304,-4349,-12540,-8010,1556,1173,-731,-36,31,7
732,20,32,22,22,27,39,33,77,5299,-4352,-12538,-8014,1588,1191,-737,-69,14,-13
747,19,31,21,23,30,44,37,61,5287,-4357,-12535,-8025,1600,1224,-743,-108,-9,-29
769,20,28,21,23,31,46,36,58,5269,-4361,-12523,-8053,1605,1257,-762,-212,16,-54
792,19,29,22,24,37,48,35,42,5248,-4366,-12501,-8098,1606,1272,-743,-324,38,-75
807,18,26,20,23,41,60,31,36,5229,-4370,-12468,-8159,1588,1247,-681,-396,79,-90
829,17,26,20,25,50,74,36,31,5220,-4373,-12430,-8220,1581,1212,-608,-390,106,-81
852,19,28,21,23,49,75,35,31,5224,-4373,-12389,-8280,1556,1170,-486,-337,134,-59
867,19,29,22,35,50,72,35,30,5237,-4365,-12350,-8334,1542,1169,-415,-259,167,-58
898,18,29,23,52,72,74,38,28,5271,-4341,-12316,-8376,1549,1169,-364,-131,253,-56
912,22,42,39,82,100,77,42,31,5340,-4298,-12274,-8415,1591,1172,-307,-38,445,-27
927,23,43,43,117,100,68,40,29,5460,-4239,-12217,-8452,1685,1235,-329,23,741,79
958,25,40,57,145,150,74,41,29,5620,-4160,-12144,-8490,1712,1227,-310,65,1003,130
972,28,48,76,165,238,96,49,37,5807,-4052,-12065,-8529,1706,1228,-292,124,1225,102
994,30,47,77,186,254,102,52,39,6021,-3924,-11981,-8559,1742,1218,-313,205,1424,116
1009,26,39,71,184,248,103,54,38,6239,-3763,-11904,-8583,1677,1219,-295,309,1534,25
1032,29,47,84,195,269,132,71,44,6453,-3569,-11830,-8609,1683,1243,-280,369,1628,-124
1047,27,53,88,203,250,131,69,42,6653,-3360,-11760,-8638,1673,1227,-309,374,1616,-236
1069,23,47,75,193,186,117,64,35,6835,-3151,-11696,-8661,1677,1210,-313,360,1572,-293
1100,23,48,85,171,156,110,61,33,7001,-2929,-11634,-8689,1685,1277,-323,347,1566,-393
1107,24,62,111,165,155,107,59,31,7136,-2708,-11574,-8730,1543,1250,-257,273,1446,-487
1129,29,56,141,131,113,71,40,24,7256,-2510,-11510,-8777,1447,1184,-214,169,1332,-459
1152,34,56,151,96,103,66,42,25,7357,-2332,-11443,-8829,1446,1237,-185,65,1203,-434
1174,37,55,152,89,78,66,41,24,7431,-2187,-11385,-8879,1408,1215,-108,19,960,-396
1189,37,56,182,90,75,71,44,26,7479,-2066,-11347,-8916,1425,1205,-83,47,714,-379
1212,36,62,216,89,68,69,42,25,7520,-1957,-11322,-8938,1440,1197,-6,136,585,-342
1227,29,73,213,87,73,65,37,23,7553,-1856,-11310,-8947,1493,1253,-19,186,501,-315
1257,23,74,218,78,71,64,35,23,7583,-1751,-11304,-8949,1474,1296,25,256,462,-307
1280,20,101,280,77,64,63,34,23,7614,-1646,-11297,-8952,1503,1326,59,259,459,-317
1287,22,122,307,87,81,59,36,23,7655,-1535,-11279,-8960,1519,1351,75,226,546,-309
1317,23,134,316,93,79,57,35,23,7724,-1407,-11237,-8974,1472,1406,122,200,764,-269
1341,22,133,324,89,75,52,33,22,7797,-1275,-11192,-8987,1497,1425,110,191,804,-276
1356,28,208,368,86,78,57,36,21,7862,-1133,-11146,-9007,1450,1394,65,165,842,-362
1369,32,208,337,86,82,58,36,20,7923,-985,-11096,-9032,1376,1383,107,156,848,-392
1400,32,206,340,94,77,67,36,21,7980,-838,-11049,-9055,1337,1391,95,155,827,-398
1415,32,208,355,107,96,75,36,24,8023,-690,-11003,-9086,1371,1417,77,113,796,-478
1429,33,220,448,117,101,77,37,26,8058,-551,-10957,-9119,1326,1401,100,80,731,-475
1453,30,167,443,117,97,76,35,26,8092,-432,-10909,-9153,1334,1394,200,52,645,-424
1475,25,158,494,119,94,74,33,26,8116,-317,-10870,-9182,1287,1459,199,75,570,-393
1490,26,157,493,119,132,75,32,24,8137,-215,-10835,-9208,1260,1477,254,81,490,-344
1512,27,149,510,112,123,63,30,22,8154,-123,-10799,-9237,1236,1474,301,52,432,-328
1535,26,156,457,104,119,63,29,20,8170,-27,-10764,-9264,1217,1473,256,49,462,-340
1550,27,144,445,107,148,77,32,23,8169,68,-10739,-9294,1135,1483,244,64,364,-373
1572,28,161,418,124,154,91,39,25,8155,157,-10718,-9330,1153,1511,280,47,281,-421
1595,25,161,406,124,117,82,37,25,8145,241,-10691,-9368,1218,1557,283,-1,305,-417
1610,27,153,400,130,115,83,36,25,8134,325,-10661,-9408,1222,1544,278,-19,315,-435
1640,27,132,371,133,125,82,37,25,8128,418,-10632,-9443,1170,1587,247,6,371,-424
1655,25,137,359,133,104,68,35,22,8121,511,-10600,-9480,1102,1572,292,9,358,-418
1670,26,122,354,124,101,57,30,19,8117,596,-10565,-9518,1074,1542,281,-36,355,-390
1692,28,125,468,133,111,65,34,22,8114,677,-10530,-9553,1101,1545,289,-32,356,-384
1715,26,131,462,127,126,73,38,22,8119,760,-10496,-9581,1121,1544,318,6,381,-360
1730,27,125,467,127,117,74,36,24,8123,844,-10465,-9604,1136,1569,274,17,390,-370
1752,28,119,461,130,135,75,37,27,8120,924,-10434,-9632,1096,1588,321,1,340,-375
1775,27,142,466,126,146,75,36,28,8111,990,-10407,-9663,1056,1615,332,-30,260,-331
1790,26,135,344,108,147,74,35,30,8102,1049,-10379,-9695,995,1600,351,-50,225,-298
1812,27,132,320,103,137,67,32,33,8090,1101,-10354,-9725,978,1620,368,-47,179,-273
1835,32,166,361,135,135,82,42,36,8080,1151,-10329,-9755,967,1586,378,-47,182,-272
1850,32,173,403,140,108,90,49,36,8075,1200,-10304,-9779,968,1583,400,-25,195,-241
1872,32,142,398,144,93,93,49,35,8069,1252,-10284,-9798,954,1587,363,1,196,-233
1895,40,165,476,168,110,100,50,33,8060,1300,-10271,-9814,911,1606,398,43,146,-208
1917,40,181,528,190,126,115,55,33,8049,1347,-10259,-9828,886,1610,394,47,129,-194
1932,35,157,511,171,127,105,49,30,8042,1384,-10247,-9842,924,1670,400,10,115,-149
1955,37,159,582,224,145,111,46,30,8037,1416,-10232,-9857,914,1636,414,-7,113,-136
1970,44,212,683,327,154,125,57,39,8036,1451,-10217,-9868,894,1636,445,29,128,-125
1992,36,211,757,358,158,121,59,38,8042,1494,-10200,-9875,935,1677,460,53,189,-127
2015,44,195,723,350,163,119,59,40,8052,1547,-10176,-9883,949,1704,453,44,260,-161
2030,47,208,762,366,162,124,62,41,8060,1607,-10150,-9894,933,1670,439,41,285,-208
2052,50,220,739,346,172,118,61,41,8064,1669,-10123,-9908,881,1659,406,19,286,-223
2075,44,179,671,257,166,102,53,34,8064,1730,-10102,-9918,862,1673,382,43,261,-210
2090,53,163,542,197,154,97,50,35,8063,1781,-10088,-9924,870,1681,399,60,204,-174
2112,48,185,571,198,159,91,45,33,8062,1823,-10075,-9931,844,1638,382,25,172,-151
2135,50,188,575,195,176,102,44,31,8061,1855,-10067,-9934,830,1624,405,48,120,-103
2150,45,170,529,178,171,98,43,29,8055,1893,-10069,-9929,831,1666,364,101,114,-100
2172,50,221,651,208,182,100,40,29,8048,1928,-10068,-9929,805,1687,380,81,96,-96
2195,45,224,692,214,179,107,43,31,8043,1960,-10064,-9931,798,1676,431,74,86,-95
2210,44,206,662,208,163,111,43,31,8034,1993,-10062,-9934,817,1710,421,75,78,-114
2234,39,189,654,198,160,105,43,31,8022,2027,-10062,-9936,811,1716,400,84,66,-124
2255,42,186,642,195,177,106,44,34,8010,2058,-10058,-9945,823,1718,396,33,68,-147
2270,42,128,520,156,185,112,48,34,7991,2085,-10059,-9953,820,1729,364,34,26,-147
2292,39,112,447,151,181,106,45,33,7970,2104,-10061,-9963,778,1709,391,24,-26,-120
2315,38,122,486,153,173,94,44,31,7960,2114,-10059,-9972,802,1680,408,-3,-5,-76
2337,40,124,415,129,166,88,43,32,7950,2132,-10062,-9973,795,1703,382,50,14,-68
2352,39,123,421,131,131,93,47,30,7942,2154,-10066,-9971,765,1715,379,69,38,-53
2375,35,113,367,133,113,83,47,30,7931,2172,-10069,-9972,753,1709,362,43,13,-54
2397,55,119,402,129,115,86,48,29,7921,2180,-10074,-9973,773,1698,356,19,-17,-34
2412,68,106,382,123,114,85,48,29,7914,2177,-10075,-9978,771,1662,366,-32,-37,-2
2435,67,101,427,143,116,86,48,28,7911,2167,-10079,-9978,790,1671,388,-17,-59,43
2457,67,113,456,149,125,92,48,27,7905,2157,-10088,-9977,788,1712,426,24,-92,50
2472,72,113,441,137,135,86,43,25,7897,2153,-10099,-9973,771,1734,371,26,-69,47
2495,58,106,432,133,135,78,39,23,7891,2150,-10108,-9969,783,1734,412,44,-63,46
2517,48,114,418,139,139,82,40,27,7876,2148,-10120,-9969,727,1725,320,11,-87,27
2532,59,116,353,116,134,81,39,26,7858,2131,-10131,-9977,706,1661,357,-35,-163,36
2563,71,105,296,103,124,70,35,24,7843,2094,-10142,-9985,804,1696,408,-72,-225,84
2577,65,103,315,103,88,71,35,26,7836,2053,-10151,-9989,859,1696,375,-92,-186,108
2592,66,109,306,96,79,70,32,26,7826,2015,-10162,-9993,801,1661,336,-95,-189,115
2615,64,105,279,86,78,67,31,24,7802,1969,-10191,-9993,726,1612,271,-52,-306,145
2645,58,93,296,100,83,57,30,32,7754,1901,-10238,-9994,683,1576,268,-32,-523,164
2652,38,89,294,98,88,45,27,33,7728,1798,-10274,-9997,846,1671,441,-106,-560,302
2675,35,104,267,91,87,42,28,31,7739,1678,-10291,-9991,1034,1712,423,-220,-412,436
2697,34,108,234,89,89,44,29,30,7759,1566,-10302,-9982,1049,1666,401,-228,-334,435
2712,31,115,265,95,92,51,29,30,7767,1476,-10318,-9974,1011,1664,415,-142,-321,343
2735,25,142,268,90,99,60,28,22,7767,1403,-10338,-9964,948,1644,408,-68,-310,299
2757,40,143,280,91,88,64,29,25,7772,1337,-10354,-9953,978,1713,405,-76,-255,302
2772,40,130,273,99,88,65,29,25,7768,1286,-10376,-9939,984,1733,334,-31,-234,242
2796,41,138,268,105,95,74,32,26,7756,1251,-10402,-9926,991,1689,319,27,-216,144
2817,47,162,290,114,93,83,38,29,7734,1219,-10428,-9919,965,1649,394,56,-266,82
2834,47,141,266,109,68,82,37,32,7713,1192,-10452,-9914,962,1667,335,29,-234,75
2855,36,141,245,104,70,83,38,31,7716,1151,-10463,-9906,1060,1652,376,-27,-155,161
2877,36,135,237,96,70,81,39,32,7718,1117,-10469,-9901,1022,1609,369,-42,-130,136
2892,31,123,252,90,58,72,36,31,7718,1086,-10481,-9892,957,1578,316,-8,-136,151
2915,21,81,243,88,50,56,29,26,7699,1042,-10514,-9876,824,1524,242,25,-289,210
2937,16,79,262,88,54,51,28,24,7680,959,-10556,-9855,837,1463,261,-8,-455,349
2952,14,74,262,88,48,44,24,23,7678,849,-10593,-9826,889,1490,274,-62,-473,521
2974,14,88,273,88,47,44,23,21,7679,715,-10642,-9784,982,1435,252,-46,-557,614
2997,16,91,252,84,50,44,26,21,7676,572,-10706,-9725,1031,1431,249,53,-637,668
3012,17,88,208,64,47,39,26,21,7677,431,-10775,-9655,1129,1464,276,129,-640,693
3034,18,86,180,54,39,32,27,21,7700,287,-10821,-9590,1340,1564,318,40,-514,716
3057,19,94,186,53,36,30,26,21,7739,165,-10846,-9534,1488,1661,256,-39,-302,653
3072,20,106,181,58,38,33,27,21,7763,69,-10876,-9481,1456,1631,230,28,-283,515
3095,22,132,191,55,32,32,26,20,7768,0,-10912,-9436,1265,1587,186,86,-287,408
3117,23,136,153,52,46,46,29,21,7755,-69,-10953,-9398,1128,1559,117,44,-356,390
3132,32,136,157,47,54,50,28,20,7726,-162,-10997,-9369,1093,1476,153,-13,-520,395
3162,33,130,158,47,55,51,28,21,7681,-279,-11050,-9342,1225,1486,142,-58,-673,391
3177,33,116,147,43,58,51,29,21,7644,-413,-11091,-9319,1376,1419,137,-146,-667,392
3192,31,84,125,44,60,53,27,19,7609,-548,-11134,-9289,1447,1405,126,-111,-669,404
3231,29,71,123,38,55,44,24,19,7582,-669,-11180,-9247,1461,1422,98,-29,-597,415
3237,26,69,104,35,50,40,23,18,7560,-787,-11217,-9212,1487,1436,109,-60,-556,412
3268,26,72,84,36,49,40,25,18,7544,-890,-11239,-9189,1522,1469,80,-123,-437,354
3274,25,65,78,32,44,37,24,17,7521,-979,-11256,-9178,1462,1453,87,-147,-405,278
3299,25,49,51,27,40,38,25,18,7488,-1062,-11279,-9167,1377,1375,44,-125,-437,227
3328,25,47,44,25,41,41,25,18,7439,-1150,-11311,-9156,1307,1327,4,-130,-525,207
3334,19,42,36,23,41,41,24,19,7382,-1254,-11343,-9150,1390,1367,15,-176,-613,222
3367,20,33,30,21,41,41,27,19,7324,-1364,-11374,-9143,1475,1357,-48,-216,-611,209
3396,24,29,30,28,48,63,46,28,7256,-1482,-11410,-9134,1486,1329,-98,-224,-680,207
3397,29,22,29,29,48,61,46,31,7176,-1607,-11458,-9115,1460,1262,-180,-202,-760,206
3425,33,21,26,31,39,77,55,33,7086,-1744,-11513,-9091,1435,1265,-187,-184,-856,248
3439,38,22,24,33,35,85,57,35,6991,-1893,-11570,-9062,1464,1318,-170,-170,-947,306
3462,38,23,26,35,37,89,60,39,6891,-2051,-11627,-9032,1468,1318,-173,-183,-1000,335
3477,36,21,22,30,28,81,49,39,6785,-2213,-11680,-9005,1512,1330,-143,-201,-1048,322
3499,31,20,23,28,28,83,49,39,6671,-2366,-11731,-8985,1557,1351,-139,-204,-1061,247
3514,28,18,23,25,27,65,41,40,6553,-2506,-11779,-8971,1539,1280,-134,-201,-1037,151
3537,27,17,24,24,26,53,37,39,6445,-2634,-11827,-8950,1577,1255,-90,-115,-1001,133
3568,28,14,20,20,22,48,35,53,6354,-2746,-11876,-8917,1609,1317,-99,-5,-900,156
3582,30,15,21,19,19,37,40,82,6281,-2843,-11904,-8901,1638,1387,-86,-72,-735,158
3597,30,17,23,20,20,35,47,96,6224,-2933,-11917,-8894,1632,1303,-109,-131,-608,142
3628,29,21,23,21,20,35,44,97,6177,-3007,-11925,-8890,1589,1267,-153,-129,-483,114
3634,26,24,21,19,20,36,48,117,6140,-3069,-11937,-8879,1565,1290,-190,-62,-415,123
3673,22,26,21,20,21,31,46,119,6103,-3129,-11952,-8863,1540,1322,-255,-45,-390,147
3679,18,25,22,21,20,32,39,100,6064,-3191,-11964,-8852,1542,1298,-302,-94,-382,136
3696,18,24,23,19,24,28,34,88,6028,-3243,-11974,-8844,1590,1302,-305,-90,-334,84
3717,16,21,22,18,25,28,35,87,6006,-3275,-11984,-8834,1616,1272,-317,-29,-223,27
3739,15,22,23,19,25,33,36,57,5993,-3286,-11996,-8822,1619,1249,-360,30,-112,-34
3754,17,20,24,20,24,31,34,42,5991,-3280,-12013,-8803,1584,1230,-344,122,-40,-62
3777,19,23,26,19,26,32,38,40,5994,-3272,-12033,-8777,1573,1234,-365,163,-20,-40
3799,19,23,22,21,20,31,37,39,5990,-3274,-12053,-8751,1519,1243,-384,133,-70,5
3814,23,22,25,21,23,33,37,41,5976,-3285,-12076,-8725,1505,1268,-394,119,-142,24
3838,22,20,25,21,25,29,34,62,5950,-3309,-12093,-8710,1494,1271,-385,17,-214,37
3859,22,20,23,20,26,30,38,84,5915,-3344,-12105,-8703,1500,1254,-375,-59,-268,32
3876,21,17,21,22,25,28,40,98,5878,-3381,-12120,-8693,1538,1249,-369,-35,-309,21
3905,27,19,23,21,26,29,42,102,5837,-3418,-12138,-8682,1533,1263,-380,-27,-324,17
3919,26,19,21,20,23,27,41,103,5796,-3457,-12155,-8670,1511,1272,-368,-26,-339,38
3942,25,18,21,21,23,29,41,98,5758,-3496,-12172,-8656,1537,1258,-367,-5,-339,39
3957,27,21,21,21,24,28,37,85,5723,-3531,-12187,-8644,1542,1207,-382,-18,-307,8
3979,28,22,23,20,25,30,39,92,5691,-3560,-12206,-8625,1537,1201,-410,32,-285,-3
3994,22,21,23,22,26,28,41,90,5658,-3595,-12228,-8602,1517,1215,-437,42,-310,35
4017,21,22,23,21,26,27,45,89,5620,-3637,-12249,-8579,1513,1219,-452,15,-345,60
4048,29,26,24,21,26,25,56,162,5579,-3684,-12269,-8557,1539,1249,-449,10,-379,71
4054,31,25,25,22,27,28,62,177,5536,-3732,-12293,-8530,1554,1246,-489,26,-397,71
4078,30,26,24,24,26,30,59,166,5491,-3775,-12325,-8494,1569,1277,-513,95,-414,60
4099,31,27,23,23,26,31,58,166,5442,-3816,-12365,-8448,1528,1250,-516,163,-464,50
4116,33,27,25,26,26,31,66,184,5398,-3855,-12408,-8397,1554,1228,-536,201,-444,44
4137,26,25,24,25,25,30,63,132,5357,-3887,-12452,-8343,1568,1223,-600,218,-403,24
6,Repeat 6,,,,,,,,,,,,,,,,,
28,24,23,26,25,22,29,56,108,5274,-3940,-12543,-8234,1503,1235,-609,237,-400,21
43,24,20,26,26,25,39,62,115,5232,-3973,-12581,-8187,1479,1233,-615,181,-399,55
67,22,19,25,24,23,44,54,84,5187,-4005,-12621,-8138,1470,1208,-588,210,-432,35
88,21,21,26,24,24,51,57,117,5150,-4031,-12668,-8075,1543,1196,-614,307,-427,22
105,23,22,25,29,26,53,65,133,5120,-4050,-12711,-8017,1571,1197,-668,290,-352,-1
134,25,22,24,28,27,51,67,140,5097,-4063,-12749,-7964,1570,1179,-692,270,-287,-18
148,29,24,24,27,25,44,62,139,5073,-4086,-12776,-7924,1521,1183,-696,162,-278,35
171,30,24,22,27,25,38,62,158,5051,-4124,-12787,-7901,1528,1190,-693,34,-266,108
186,31,21,19,27,25,31,55,144,5035,-4167,-12788,-7887,1540,1178,-709,-38,-223,129
208,32,22,18,23,26,26,52,139,5019,-4200,-12796,-7868,1527,1167,-763,-3,-188,86
223,29,23,17,23,25,25,48,131,4998,-4223,-12814,-7838,1511,1172,-783,89,-211,47
246,25,22,19,23,25,24,58,151,4977,-4244,-12838,-7800,1505,1195,-794,143,-227,52
276,23,23,19,21,25,25,61,141,4958,-4262,-12863,-7762,1494,1211,-814,159,-213,54
283,22,24,20,22,25,25,57,122,4938,-4275,-12890,-7723,1487,1171,-849,157,-192,18
307,20,23,19,21,21,31,53,117,4917,-4285,-12919,-7682,1445,1122,-863,171,-188,-4
328,24,22,18,21,21,33,65,179,4895,-4296,-12949,-7640,1432,1117,-866,172,-204,0
351,28,22,16,20,19,36,59,172,4875,-4306,-12976,-7601,1470,1164,-902,160,-182,8
366,26,23,19,21,25,40,53,164,4853,-4318,-12997,-7572,1495,1184,-941,93,-160,3
388,28,23,21,23,26,39,57,183,4824,-4339,-13006,-7563,1474,1186,-927,-49,-174,14
411,27,22,20,23,28,40,57,188,4785,-4372,-13003,-7575,1448,1202,-872,-183,-217,45
426,24,21,21,23,27,39,44,138,4739,-4416,-12994,-7592,1480,1214,-847,-240,-278,62
456,20,20,22,22,27,36,40,143,4694,-4458,-12987,-7608,1492,1183,-819,-225,-286,40
463,32,19,24,25,22,38,67,238,4660,-4493,-12982,-7617,1487,1127,-788,-157,-252,20
487,39,46,28,23,20,39,84,382,4627,-4520,-12986,-7615,1473,1101,-819,-89,-235,-14
517,54,102,47,24,24,46,92,416,4581,-4548,-12996,-7608,1425,1111,-882,-90,-291,-26
523,133,122,55,26,36,68,116,437,4513,-4575,-13024,-7586,1377,1163,-985,-24,-388,-60
554,143,128,60,32,39,78,123,439,4430,-4606,-13061,-7552,1375,1197,-1075,9,-477,-72
568,144,129,58,29,40,78,113,397,4324,-4627,-13131,-7478,1323,1126,-1172,209,-631,-182
592,146,124,57,29,40,79,101,255,4203,-4633,-13213,-7398,1418,1184,-1093,315,-767,-311
606,143,88,44,29,36,73,95,199,4091,-4647,-13280,-7333,1527,1266,-1021,269,-768,-264
628,78,58,34,26,26,53,62,139,4001,-4681,-13315,-7296,1514,1221,-950,87,-663,-126
643,69,45,25,22,24,40,48,129,3936,-4732,-13316,-7298,1491,1203,-852,-134,-519,11
666,65,41,26,22,23,42,48,171,3902,-4777,-13299,-7318,1486,1177,-835,-200,-313,66
689,59,36,25,24,24,37,46,168,3892,-4808,-13280,-7337,1437,1146,-880,-168,-140,66
703,54,27,22,24,26,42,40,165,3901,-4821,-13262,-7356,1408,1231,-889,-94,8,66
727,52,27,21,24,26,40,41,168,3933,-4823,-13238,-7381,1414,1222,-891,-90,159,82
765,35,28,21,24,24,38,40,162,3985,-4811,-13212,-7408,1422,1218,-911,-61,305,68
766,29,28,22,23,25,31,36,122,4043,-4788,-13189,-7433,1396,1219,-933,-32,371,38
793,22,25,20,21,24,33,35,157,4104,-4761,-13165,-7459,1400,1225,-934,-34,406,35
808,23,25,21,20,20,26,36,167,4164,-4730,-13143,-7484,1403,1230,-965,-28,428,14
831,22,23,22,24,21,34,35,166,4219,-4694,-13127,-7504,1404,1211,-1001,-20,421,-24
846,25,21,19,23,25,59,49,159,4272,-4655,-13113,-7523,1403,1212,-1008,-9,420,-47
868,25,21,20,23,25,63,46,152,4320,-4622,-13096,-7545,1398,1229,-1004,-46,396,-18
883,24,23,22,28,25,65,45,124,4368,-4600,-13071,-7574,1427,1225,-938,-103,371,22
906,26,22,22,27,27,68,47,115,4422,-4581,-13038,-7610,1484,1217,-899,-139,393,36
930,25,22,22,25,27,65,47,116,4481,-4557,-13008,-7642,1492,1217,-867,-95,409,27
943,22,21,24,25,21,44,37,121,4541,-4532,-12979,-7671,1458,1202,-842,-74,416,31
967,21,25,22,26,21,40,40,120,4602,-4508,-12949,-7699,1443,1175,-812,-74,417,46
990,20,22,20,22,21,35,38,95,4659,-4491,-12924,-7717,1470,1135,-823,-54,368,52
1011,16,24,20,26,30,43,37,94,4709,-4471,-12904,-7731,1462,1194,-794,-3,319,41
1033,16,23,20,29,37,55,37,88,4752,-4455,-12886,-7745,1473,1224,-784,-14,276,59
1048,17,33,20,29,39,65,32,79,4790,-4445,-12866,-7760,1498,1211,-812,-48,256,54
1071,17,34,21,29,39,65,29,82,4835,-4432,-12845,-7776,1493,1193,-772,-41,286,60
1093,18,39,20,30,41,67,30,89,4884,-4418,-12824,-7787,1510,1177,-810,-30,317,66
1108,20,39,21,27,34,62,28,60,4928,-4405,-12806,-7795,1491,1168,-815,-21,292,63
1139,20,41,20,25,26,53,27,57,4970,-4394,-12789,-7803,1504,1188,-795,-15,273,71
1146,20,33,20,24,25,38,24,56,5008,-4379,-12773,-7813,1503,1216,-769,-6,262,56
1177,19,33,21,24,25,45,23,48,5044,-4360,-12756,-7829,1537,1240,-739,-28,262,19
1191,19,29,20,24,24,43,23,28,5085,-4335,-12734,-7852,1564,1227,-700,-41,295,-9
1206,18,29,19,23,24,40,23,25,5133,-4309,-12710,-7874,1563,1182,-694,-47,342,-5
1228,18,29,18,24,25,46,28,25,5190,-4279,-12685,-7893,1568,1169,-674,-12,388,-2
1251,16,35,18,25,31,49,29,23,5254,-4242,-12660,-7911,1544,1189,-663,16,441,12
1266,16,34,16,23,34,56,30,20,5325,-4202,-12633,-7929,1514,1174,-620,36,474,29
1288,16,32,19,28,39,60,30,20,5397,-4157,-12608,-7943,1522,1184,-606,65,491,17
1311,17,39,26,30,41,62,30,19,5479,-4101,-12577,-7964,1567,1199,-571,63,563,-14
1326,17,38,33,32,43,58,28,20,5574,-4034,-12541,-7989,1611,1227,-574,71,675,-27
1350,17,33,107,50,42,55,28,21,5690,-3951,-12493,-8025,1682,1247,-538,52,828,-50
1371,17,30,124,58,43,44,31,23,5838,-3840,-12428,-8073,1743,1315,-439,81,1066,-74
1386,16,31,125,58,41,38,29,22,6018,-3689,-12348,-8134,1787,1402,-417,106,1362,-137
1408,17,28,126,62,42,35,28,22,6204,-3505,-12269,-8194,1707,1275,-397,160,1501,-287
1431,22,36,133,68,42,32,25,21,6389,-3294,-12200,-8243,1654,1190,-412,260,1578,-409
1446,22,57,134,66,45,43,26,21,6571,-3071,-12139,-8275,1581,1126,-421,351,1588,-458
1468,33,75,144,64,56,55,28,22,6740,-2853,-12082,-8302,1582,1111,-471,330,1549,-472
1491,57,81,153,64,65,69,29,21,6895,-2642,-12035,-8312,1594,1186,-516,374,1461,-430
1506,57,84,156,63,68,72,30,21,7007,-2452,-11998,-8330,1505,1297,-517,276,1229,-424
1530,55,103,154,64,70,76,32,20,7089,-2304,-11956,-8364,1484,1332,-401,105,971,-359
1551,55,105,120,57,67,72,31,19,7146,-2198,-11908,-8412,1465,1331,-347,-84,762,-294
1566,50,98,98,53,62,74,27,18,7177,-2116,-11862,-8470,1459,1322,-285,-187,572,-299
1597,20,100,116,55,54,65,27,19,7188,-2042,-11825,-8532,1523,1336,-231,-196,429,-376
1611,19,98,112,50,47,61,27,20,7196,-1962,-11780,-8605,1556,1343,-167,-238,439,-441
1633,18,89,143,45,43,58,23,20,7206,-1874,-11730,-8685,1535,1342,-88,-239,473,-487
1649,19,83,156,49,47,64,28,21,7219,-1781,-11679,-8762,1502,1315,-54,-213,489,-507
1672,17,85,186,54,48,55,30,20,7239,-1684,-11631,-8828,1491,1308,-25,-147,514,-485
1686,17,82,169,53,48,60,35,21,7266,-1585,-11581,-8890,1453,1342,1,-122,550,-440
1710,19,96,232,68,52,63,34,21,7297,-1483,-11525,-8953,1469,1363,-15,-151,608,-446
1748,19,99,252,69,52,64,37,21,7324,-1371,-11475,-9014,1427,1365,5,-105,606,-493
1749,19,96,260,68,53,58,34,22,7350,-1248,-11428,-9071,1415,1433,25,-50,626,-509
1784,21,118,258,67,50,57,32,22,7372,-1123,-11384,-9123,1388,1460,16,-30,617,-514
1791,21,133,268,70,48,48,27,22,7387,-994,-11343,-9178,1345,1441,32,-30,594,-561
1806,19,134,249,63,51,46,28,21,7396,-865,-11308,-9226,1242,1422,48,23,556,-545
1829,18,125,220,63,57,50,28,26,7406,-742,-11277,-9268,1239,1444,66,44,525,-509
1851,19,128,203,59,56,50,28,26,7415,-625,-11245,-9308,1230,1450,76,25,504,-488
1866,16,119,184,68,54,46,26,25,7426,-514,-11212,-9346,1262,1469,68,12,503,-472
1889,17,130,241,76,54,54,29,26,7436,-412,-11181,-9380,1232,1480,53,2,477,-427
1911,16,135,234,74,60,59,29,27,7445,-321,-11153,-9409,1208,1501,61,-7,427,-368
1926,18,141,232,73,54,53,27,22,7449,-244,-11124,-9442,1208,1546,85,-47,363,-331
1949,17,158,268,79,54,55,28,23,7450,-174,-11093,-9480,1181,1601,97,-98,328,-308
1971,18,151,308,75,59,57,27,22,7445,-114,-11063,-9519,1151,1575,125,-120,265,-294
1994,17,144,335,70,60,50,25,20,7438,-57,-11031,-9562,1167,1563,160,-130,253,-320
2009,19,146,356,79,63,52,27,21,7429,6,-10999,-9606,1154,1584,182,-120,249,-348
2031,19,154,362,86,69,54,28,21,7416,75,-10971,-9648,1119,1581,242,-60,236,-372
2054,20,145,346,85,70,53,28,18,7406,141,-10944,-9685,1100,1569,217,-54,240,-348
2069,20,141,316,87,72,55,31,21,7396,203,-10915,-9725,1087,1577,231,-86,232,-339
2099,20,144,277,103,79,58,32,22,7389,264,-10883,-9764,1077,1561,229,-99,249,-327
2114,21,149,298,99,78,52,30,21,7389,319,-10849,-9801,1086,1575,238,-111,265,-293
2129,22,155,348,113,85,57,31,23,7396,376,-10810,-9836,1068,1606,272,-109,301,-254
2151,25,147,378,132,86,59,34,23,7407,431,-10773,-9866,1074,1625,258,-99,315,-224
2174,28,155,424,136,97,56,32,20,7419,488,-10736,-9894,1065,1636,297,-81,313,-221
2189,28,149,443,141,98,66,38,24,7431,551,-10700,-9921,1066,1658,293,-65,343,-247
2211,27,134,455,154,108,77,42,24,7437,625,-10667,-9948,1023,1656,300,-21,345,-293
2234,27,117,439,143,104,77,43,27,7431,705,-10642,-9974,976,1651,308,24,296,-342
2249,25,120,414,128,106,81,40,28,7423,789,-10618,-9999,986,1673,294,35,310,-365
2271,25,110,419,128,100,86,41,29,7411,879,-10594,-10026,983,1692,280,37,323,-414
2294,25,119,469,143,124,91,41,29,7392,970,-10572,-10055,930,1701,290,39,289,-435
2316,26,133,480,137,122,83,40,31,7355,1124,-10521,-10119,863,1644,273,-30,241,-366
2333,27,134,468,137,129,88,40,29,7336,1189,-10499,-10148,825,1639,295,-24,194,-331
2354,27,133,494,150,141,92,42,29,7318,1243,-10481,-10173,813,1648,322,-12,149,-283
2384,26,136,492,156,147,96,43,30,7307,1285,-10460,-10197,805,1617,326,-48,139,-220
2393,25,121,441,137,128,83,38,29,7309,1321,-10438,-10214,819,1625,328,-46,175,-148
2415,23,115,385,128,125,89,39,27,7322,1350,-10417,-10222,859,1646,358,-31,190,-77
2436,24,124,436,141,116,83,36,28,7333,1382,-10404,-10224,806,1661,332,19,174,-45
2460,23,126,461,146,146,81,36,28,7345,1411,-10394,-10221,773,1661,344,43,160,-5
2481,28,126,424,137,151,80,42,31,7359,1434,-10388,-10214,756,1715,344,49,136,53
2490,31,136,397,129,146,78,39,30,7367,1453,-10387,-10207,773,1737,282,24,107,43
2529,31,132,408,148,150,67,35,30,7366,1468,-10385,-10207,736,1696,273,-5,57,18
2534,32,150,362,137,158,72,37,29,7367,1467,-10381,-10211,788,1673,394,-10,-12,42
2556,33,150,289,123,127,73,41,31,7376,1461,-10374,-10212,854,1692,389,-29,14,62
2573,30,160,332,133,120,67,36,24,7393,1462,-10365,-10209,897,1743,371,-29,85,72
2594,34,158,336,136,127,73,38,27,7408,1468,-10355,-10207,889,1729,398,-6,89,42
2616,36,154,332,113,161,80,41,28,7412,1483,-10352,-10206,853,1726,364,29,67,-11
2632,34,138,327,111,165,87,45,27,7414,1498,-10348,-10206,835,1711,341,11,70,-18
2655,32,139,342,115,162,92,41,25,7411,1513,-10350,-10203,856,1720,321,32,45,-32
2676,32,134,309,98,167,93,40,26,7402,1526,-10352,-10206,833,1700,353,32,-3,-58
2707,30,150,346,92,164,100,42,27,7396,1531,-10356,-10206,835,1690,346,23,-13,-17
2714,27,150,320,101,128,98,42,26,7396,1529,-10356,-10206,811,1691,335,-11,-11,41
2736,31,155,339,116,121,93,40,28,7391,1520,-10360,-10207,835,1715,357,-16,-66,41
2753,34,162,334,110,144,83,40,29,7389,1511,-10360,-10209,852,1705,412,-2,-54,39
2775,33,165,338,112,133,83,39,31,7389,1512,-10359,-10210,884,1755,390,-15,-6,14
2798,30,153,309,119,138,81,41,28,7385,1525,-10358,-10212,860,1702,359,21,29,-55
2827,31,170,351,120,137,85,43,29,7382,1541,-10357,-10213,819,1686,365,40,38,-45
2849,28,162,365,111,128,79,41,26,7389,1552,-10352,-10212,875,1724,366,12,72,-3
2856,24,156,384,117,109,75,39,25,7396,1564,-10347,-10209,858,1713,325,5,90,-2
2879,29,156,370,123,124,72,37,22,7398,1575,-10346,-10208,821,1697,318,5,53,-4
2894,34,148,364,132,139,64,34,21,7406,1582,-10342,-10205,838,1689,358,11,57,27
2917,33,129,333,125,148,56,29,23,7417,1591,-10338,-10199,846,1723,337,10,88,37
2932,32,157,338,151,158,86,38,29,7424,1601,-10335,-10195,842,1710,356,21,65,18
2954,38,152,348,174,178,118,49,32,7437,1607,-10329,-10191,833,1696,362,2,82,48
2985,35,147,360,177,174,137,55,36,7455,1610,-10321,-10185,855,1714,358,-13,93,78
2992,29,147,356,179,173,149,58,37,7470,1616,-10314,-10182,842,1717,361,-12,91,58
3021,28,160,354,184,174,164,64,38,7478,1627,-10308,-10180,815,1701,363,9,78,22
3036,28,127,328,161,167,150,60,35,7484,1639,-10304,-10177,820,1686,340,8,74,7
3053,22,128,269,127,160,132,54,33,7492,1645,-10300,-10174,854,1703,348,2,60,21
3091,29,121,250,113,163,120,51,31,7501,1645,-10296,-10171,863,1657,355,-12,48,34
3096,31,112,234,98,153,111,49,30,7508,1644,-10293,-10170,827,1693,380,-9,19,52
3112,31,107,279,97,140,88,40,24,7513,1637,-10293,-10167,819,1694,358,-17,-10,79
3141,30,118,246,91,146,89,40,24,7510,1628,-10297,-10167,817,1698,357,-16,-53,58
3156,31,112,261,87,121,86,37,23,7497,1617,-10307,-10168,804,1708,332,-8,-111,36
3186,25,109,256,82,101,75,31,20,7462,1604,-10334,-10168,777,1684,246,26,-218,-19
3195,28,122,267,71,87,64,27,23,7400,1581,-10376,-10175,671,1649,191,26,-395,-40
3217,29,104,214,65,88,75,33,26,7319,1520,-10434,-10184,699,1659,223,6,-640,19
3232,29,97,207,67,71,75,33,29,7263,1421,-10477,-10194,793,1620,335,-89,-668,183
3255,32,116,309,99,64,77,38,28,7224,1307,-10512,-10201,845,1586,322,-159,-635,277
3276,32,137,349,114,72,79,40,29,7205,1192,-10543,-10197,940,1555,350,-124,-551,329
3299,29,140,339,111,69,74,39,29,7194,1093,-10583,-10174,912,1600,298,-14,-476,387
3315,27,137,333,105,55,64,34,27,7173,995,-10640,-10139,801,1525,230,74,-540,419
3336,27,129,327,103,59,65,34,23,7151,865,-10705,-10097,810,1485,379,131,-718,559
3358,22,142,320,83,56,56,28,22,7164,713,-10759,-10043,1051,1587,202,-15,-575,710
3375,21,145,282,69,45,51,26,21,7184,550,-10799,-9995,1134,1618,212,-110,-555,758
3403,22,142,270,71,44,51,26,18,7188,396,-10854,-9941,1166,1619,188,-16,-615,684
3418,24,144,270,70,44,43,25,18,7174,249,-10920,-9883,1033,1583,154,53,-688,675
3435,23,155,278,68,42,41,25,17,7146,73,-10993,-9825,921,1485,163,29,-875,774
3456,24,135,160,56,52,43,21,16,7135,-147,-11059,-9758,1163,1536,254,-29,-967,951
3486,21,119,149,46,55,47,23,16,7157,-346,-11100,-9691,1547,1587,155,-100,-670,858
3495,20,104,146,41,55,47,22,16,7167,-519,-11133,-9637,1681,1629,171,-102,-610,671
3525,20,101,144,40,57,50,24,16,7158,-649,-11166,-9597,1546,1652,123,-71,-542,487
3555,27,86,121,39,51,46,25,18,7137,-767,-11195,-9570,1329,1575,85,-113,-528,449
3562,31,81,100,32,41,36,24,19,7091,-893,-11240,-9542,1159,1448,34,-94,-681,435
3583,35,66,77,27,36,30,20,20,7025,-1028,-11303,-9502,1101,1423,49,0,-851,449
3616,35,69,82,26,35,31,23,19,6938,-1172,-11377,-9461,1181,1416,12,8,-984,385
3618,33,69,70,25,28,26,22,19,6835,-1329,-11458,-9417,1294,1356,-33,-3,-1099,328
3645,27,64,63,25,26,22,20,19,6721,-1494,-11543,-9371,1407,1345,-47,6,-1186,289
3658,24,48,52,19,20,21,21,18,6605,-1667,-11625,-9322,1460,1347,-92,-15,-1214,305
3683,20,45,47,19,18,20,22,18,6499,-1855,-11692,-9277,1535,1372,-101,-99,-1194,392
3696,20,35,32,18,16,16,19,19,6409,-2048,-11738,-9241,1613,1418,-96,-184,-1110,453
3718,21,38,32,17,18,19,22,20,6340,-2231,-11765,-9213,1652,1427,-85,-234,-967,476
3741,23,57,36,16,19,24,25,22,6288,-2391,-11776,-9194,1661,1421,-74,-244,-788,441
3756,22,58,35,17,18,24,26,25,6253,-2514,-11783,-9175,1620,1406,-93,-167,-596,357
3780,22,59,33,18,19,26,30,42,6236,-2602,-11788,-9157,1573,1395,-109,-88,-401,300
3795,23,61,32,18,22,27,34,47,6229,-2663,-11794,-9136,1530,1384,-142,-19,-272,249
3817,25,54,30,19,22,29,33,53,6223,-2706,-11803,-9115,1514,1351,-198,11,-191,171
3846,25,35,22,19,20,35,33,62,6215,-2741,-11819,-9089,1500,1320,-228,56,-187,132
3855,25,28,20,19,24,36,33,63,6200,-2781,-11846,-9052,1489,1263,-299,95,-241,129
3883,24,29,18,17,23,36,29,53,6176,-2832,-11874,-9016,1461,1272,-302,70,-318,162
3898,26,25,19,17,21,36,27,55,6145,-2896,-11901,-8982,1456,1290,-338,13,-367,204
3915,24,24,17,17,19,36,28,54,6106,-2974,-11920,-8958,1474,1290,-369,-92,-413,213
