time,emg0,emg1,emg2,emg3,emg4,emg5,emg6,emg7,quat0,quat1,quat2,quat3,acc0,acc1,acc2,gyro0,gyro2,gyro2
297130,30,21,39,27,38,36,32,23,-7448,-11525,-1870,-8756,1066,1140,-106,651,1147,108
297153,31,22,42,22,40,36,29,20,-7328,-11486,-1978,-8884,1277,1297,-305,494,1069,168
297175,30,23,41,28,43,37,29,24,-7224,-11461,-2056,-8983,1377,1524,-408,354,871,220
297190,29,24,37,26,40,35,27,24,-7140,-11453,-2092,-9052,1335,1687,-464,189,599,345
297213,37,26,40,27,38,39,31,23,-7093,-11461,-2071,-9084,1292,1705,-439,-57,236,404
297235,37,26,42,29,41,40,35,26,-7088,-11474,-2001,-9087,1284,1682,-338,-295,-79,403
297252,34,32,84,39,47,40,36,29,-7104,-11485,-1918,-9078,1372,1596,-175,-350,-225,301
297273,33,31,94,36,43,47,38,34,-7133,-11483,-1848,-9073,1520,1544,-39,-344,-195,133
297295,34,32,140,44,42,47,36,33,-7169,-11467,-1821,-9070,1573,1549,41,-243,-68,-82
297312,24,34,149,51,48,44,35,35,-7195,-11446,-1844,-9072,1473,1514,78,-50,82,-217
297333,29,34,151,51,45,43,32,32,-7200,-11425,-1906,-9081,1363,1484,81,150,220,-256
297355,29,30,138,49,41,48,33,30,-7192,-11404,-1983,-9096,1330,1438,14,211,312,-274
297372,30,31,134,51,51,57,32,26,-7179,-11381,-2062,-9118,1275,1407,14,228,356,-244
297393,31,30,88,44,58,56,33,33,-7162,-11354,-2128,-9150,1266,1385,-41,161,402,-159
297415,30,25,67,35,54,54,28,34,-7147,-11325,-2172,-9187,1290,1417,-89,55,392,-75
297432,26,26,63,36,54,59,29,36,-7126,-11309,-2194,-9218,1295,1454,-132,19,295,37
297453,26,24,45,29,58,53,28,39,-7103,-11308,-2193,-9237,1241,1480,-129,7,141,150
297475,26,20,38,25,55,41,27,37,-7084,-11320,-2165,-9244,1238,1480,-127,-48,-10,225
297492,24,20,34,26,49,42,27,35,-7076,-11335,-2120,-9242,1266,1478,-73,-113,-126,229
297513,25,20,34,27,48,43,28,33,-7078,-11353,-2073,-9229,1284,1453,-43,-128,-201,172
297535,25,22,35,27,51,38,25,31,-7085,-11368,-2031,-9214,1328,1405,-14,-120,-201,96
297550,32,21,42,27,47,37,26,30,-7091,-11377,-2002,-9206,1365,1399,16,-90,-137,46
297573,31,22,46,27,41,32,24,28,-7090,-11379,-1985,-9207,1398,1403,18,-39,-48,26
297595,33,31,96,36,47,35,26,25,-7081,-11380,-1979,-9214,1400,1435,16,16,15,38
297610,34,36,143,49,53,46,28,24,-7068,-11376,-1980,-9229,1481,1473,12,31,85,19
297633,34,37,158,56,53,44,29,25,-7068,-11358,-1994,-9248,1439,1520,19,-17,164,-34
297655,30,43,165,61,54,46,28,27,-7073,-11336,-2012,-9267,1428,1529,41,-19,174,-62
297670,30,46,174,63,56,50,28,27,-7085,-11314,-2041,-9279,1389,1549,75,1,161,-130
297693,26,44,168,60,57,51,26,22,-7102,-11288,-2078,-9289,1416,1550,86,-1,180,-198
297724,25,40,134,52,60,49,28,28,-7125,-11261,-2122,-9294,1480,1572,99,3,175,-277
297733,25,39,120,45,61,48,27,26,-7149,-11243,-2183,-9283,1444,1580,16,53,157,-373
297753,23,33,110,37,57,47,27,25,-7173,-11232,-2251,-9262,1322,1522,-14,85,127,-397
297775,23,26,91,37,56,43,26,25,-7190,-11232,-2306,-9236,1185,1433,-23,105,42,-314
297792,24,21,59,34,52,42,27,27,-7191,-11250,-2342,-9204,1099,1280,-25,160,-71,-210
297813,22,22,55,31,45,31,22,22,-7175,-11285,-2370,-9167,1151,1213,-73,227,-143,-173
297835,21,21,44,31,44,36,25,23,-7152,-11320,-2404,-9132,1263,1297,-138,247,-92,-192
297852,16,21,39,31,46,36,24,23,-7125,-11354,-2442,-9100,1195,1390,-181,264,-53,-127
297873,16,24,40,28,48,41,25,25,-7093,-11396,-2461,-9068,1106,1455,-178,246,-129,25
297897,17,24,41,34,49,42,24,24,-7066,-11448,-2435,-9031,1073,1484,-130,140,-313,212
297918,18,23,57,34,49,43,21,23,-7047,-11508,-2364,-8988,1114,1474,-71,27,-500,338
297933,17,26,68,35,47,40,24,23,-7032,-11568,-2273,-8946,1197,1515,-53,-36,-559,392
297955,19,28,77,38,48,46,27,24,-7027,-11622,-2179,-8903,1248,1538,-34,-84,-578,366
297978,20,28,78,39,44,40,27,20,-7027,-11666,-2093,-8867,1300,1529,1,-86,-517,309
297993,20,28,74,32,41,37,26,22,-7020,-11706,-2023,-8836,1297,1481,49,-8,-462,263
298015,22,29,61,34,36,46,34,25,-6999,-11743,-1972,-8814,1335,1438,43,102,-365,224
298038,24,27,48,33,35,49,31,27,-6963,-11779,-1947,-8799,1320,1419,-11,205,-245,184
298053,25,23,34,31,33,48,31,25,-6918,-11815,-1939,-8789,1213,1381,-75,268,-155,189
298075,26,22,33,30,31,47,31,29,-6859,-11856,-1920,-8784,1110,1305,-127,285,-149,309
298098,25,23,34,30,31,47,34,28,-6789,-11910,-1870,-8777,1037,1246,-124,274,-264,485
298113,24,21,34,24,31,38,29,29,-6709,-11974,-1788,-8769,1102,1239,-112,248,-378,636
298135,22,19,32,21,29,34,27,28,-6621,-12043,-1676,-8763,1235,1281,-120,211,-455,767
298158,24,26,32,18,24,25,25,28,-6530,-12114,-1536,-8759,1440,1324,-129,153,-531,851
298173,26,38,32,19,24,29,30,29,-6445,-12182,-1393,-8751,1618,1338,-185,97,-546,801
298195,27,55,35,21,24,27,27,32,-6365,-12242,-1263,-8746,1785,1456,-225,98,-478,739
298218,31,58,34,21,25,29,27,30,-6296,-12288,-1166,-8745,1957,1593,-342,98,-328,580
298233,33,67,35,25,34,28,25,32,-6278,-12303,-1097,-8746,1979,1686,-426,-126,-155,345
298255,33,89,34,25,37,30,27,33,-6313,-12286,-1052,-8750,1998,1703,-482,-365,8,79
298286,44,117,49,28,39,35,23,37,-6378,-12246,-1033,-8760,1842,1575,-440,-470,151,-118
298293,55,119,57,27,39,36,25,34,-6455,-12206,-1029,-8762,1626,1444,-362,-456,136,-216
298315,55,122,64,28,41,36,24,34,-6547,-12171,-1034,-8741,1537,1366,-333,-479,34,-356
298338,109,143,84,25,38,40,27,35,-6663,-12135,-1030,-8703,1431,1335,-226,-565,-90,-414
298353,129,160,92,28,38,39,26,37,-6775,-12105,-1015,-8661,1465,1242,-177,-563,-168,-423
298375,129,140,86,25,37,39,24,29,-6865,-12079,-993,-8628,1468,1173,-140,-477,-164,-339
298398,131,137,84,24,35,41,23,30,-6933,-12052,-965,-8615,1515,1174,-162,-428,-71,-233
298413,135,152,79,26,33,39,21,30,-6990,-12013,-931,-8627,1530,1230,-109,-414,33,-95
298435,110,140,73,28,30,38,21,27,-7046,-11964,-895,-8653,1517,1351,-101,-446,130,-2
298458,87,107,66,26,29,40,27,28,-7099,-11910,-863,-8688,1556,1423,-132,-454,210,16
298473,83,110,68,27,27,33,27,29,-7162,-11852,-840,-8718,1489,1465,-113,-477,218,-14
298495,113,111,67,28,31,32,28,27,-7229,-11799,-824,-8736,1440,1439,-95,-454,179,-78
298518,116,95,69,25,32,31,29,26,-7294,-11751,-823,-8747,1466,1421,-78,-390,169,-172
298533,107,80,52,22,34,28,28,27,-7352,-11711,-841,-8750,1528,1442,-59,-279,158,-267
298556,106,77,46,24,34,27,25,23,-7400,-11681,-880,-8746,1494,1411,-36,-152,154,-340
298578,106,72,44,22,33,29,24,25,-7438,-11658,-932,-8738,1484,1374,-46,-50,158,-389
298593,62,66,40,22,29,27,22,28,-7469,-11638,-1003,-8731,1441,1389,-31,37,197,-429
298616,44,56,50,22,25,28,21,29,-7491,-11618,-1087,-8729,1378,1368,-33,108,263,-436
298638,44,97,98,33,27,30,20,28,-7510,-11589,-1178,-8739,1268,1299,-23,122,352,-416
298653,41,105,147,39,24,27,20,29,-7524,-11545,-1264,-8773,1213,1265,8,78,475,-321
298676,38,116,184,58,27,23,19,31,-7526,-11496,-1351,-8822,1160,1259,131,157,514,-243
298698,34,120,201,60,31,25,20,28,-7497,-11461,-1452,-8877,1246,1202,140,353,543,-244
298714,34,133,215,62,31,23,21,30,-7450,-11416,-1575,-8952,1298,1305,120,445,733,-213
298736,34,120,211,62,26,22,23,29,-7384,-11377,-1718,-9031,1424,1400,121,591,796,-239
298758,32,114,181,58,36,28,24,30,-7304,-11344,-1890,-9103,1436,1453,18,711,866,-316
298775,31,111,155,40,34,36,26,27,-7227,-11310,-2060,-9169,1311,1433,-63,664,866,-296
298796,32,106,136,40,35,43,26,27,-7163,-11277,-2201,-9227,1179,1382,-88,514,760,-212
298818,29,86,109,40,36,45,27,25,-7104,-11256,-2307,-9272,1175,1312,-157,399,610,-138
298835,20,64,85,33,37,44,26,25,-7046,-11242,-2384,-9314,1288,1362,-222,298,527,-70
298856,16,61,85,32,32,43,22,27,-6990,-11236,-2429,-9352,1426,1511,-235,197,419,48
298878,17,41,61,32,32,42,25,25,-6944,-11247,-2426,-9374,1460,1649,-206,81,163,214
298901,22,34,56,30,31,36,25,27,-6922,-11274,-2366,-9372,1302,1658,-154,-119,-155,390
298916,36,57,112,45,42,43,30,25,-6932,-11306,-2243,-9357,1203,1599,-74,-386,-423,533
298938,36,104,177,53,47,49,31,25,-6963,-11322,-2096,-9349,1245,1577,83,-521,-477,547
298961,37,110,212,60,50,49,33,28,-7006,-11318,-1969,-9349,1393,1636,232,-504,-397,413
298976,38,113,220,61,50,46,30,27,-7070,-11294,-1889,-9346,1559,1613,277,-469,-251,68
298998,37,115,223,61,51,47,33,27,-7142,-11247,-1880,-9350,1521,1578,286,-334,12,-234
299021,28,107,209,50,45,44,30,31,-7201,-11188,-1914,-9369,1426,1490,284,-196,232,-329
299036,27,64,161,41,41,40,30,30,-7239,-11135,-1968,-9392,1333,1434,247,-54,306,-316
299058,27,55,112,37,39,41,31,25,-7263,-11088,-2027,-9416,1281,1417,169,-5,346,-276
299081,27,49,97,37,40,42,31,26,-7280,-11045,-2076,-9443,1240,1458,126,-30,349,-180
299096,25,49,107,42,40,40,29,26,-7300,-11008,-2109,-9463,1235,1475,122,-79,260,-134
299118,22,58,173,53,35,33,27,21,-7323,-10982,-2128,-9472,1283,1540,80,-118,168,-112
299141,22,60,179,56,39,31,29,25,-7354,-10955,-2142,-9475,1304,1592,76,-170,134,-131
299156,24,58,179,54,42,34,26,25,-7398,-10930,-2152,-9467,1273,1595,61,-234,73,-176
299178,25,58,182,53,42,33,26,25,-7451,-10908,-2163,-9449,1213,1536,77,-237,15,-232
299201,26,58,192,52,41,34,25,23,-7502,-10889,-2177,-9427,1181,1468,135,-188,-16,-256
299216,24,48,144,48,42,39,29,26,-7542,-10881,-2194,-9400,1202,1448,162,-92,-64,-266
299238,26,42,155,45,40,40,26,22,-7571,-10891,-2216,-9361,1165,1462,152,16,-143,-256
299261,26,42,163,44,35,36,28,22,-7594,-10910,-2230,-9316,1110,1451,161,48,-217,-194
299276,28,41,160,47,36,39,31,27,-7614,-10935,-2226,-9271,1090,1433,195,39,-301,-111
299298,25,38,133,41,35,39,39,30,-7625,-10969,-2207,-9227,1109,1433,181,47,-351,-32
299321,26,34,109,35,34,36,42,28,-7626,-11005,-2179,-9190,1141,1433,174,53,-349,45
299336,24,29,71,35,40,37,43,30,-7617,-11042,-2144,-9161,1223,1474,111,43,-308,101
299358,25,26,40,33,38,33,44,32,-7603,-11077,-2111,-9138,1231,1510,89,53,-272,140
299381,23,26,33,32,41,37,45,28,-7587,-11112,-2073,-9118,1248,1541,69,33,-259,179
299396,24,34,101,36,42,37,41,28,-7570,-11135,-2027,-9113,1304,1529,74,-27,-195,221
299418,21,60,162,44,45,38,35,28,-7557,-11143,-1994,-9122,1362,1565,72,-45,-59,173
299441,24,76,197,54,42,38,36,27,-7562,-11132,-1993,-9132,1395,1648,16,-96,97,6
299456,22,78,203,58,47,41,36,27,-7588,-11110,-2021,-9131,1383,1658,85,-77,129,-198
299478,21,79,218,67,53,40,31,26,-7617,-11081,-2093,-9126,1424,1615,45,14,260,-438
299501,19,76,199,65,66,40,28,22,-7655,-11032,-2191,-9130,1383,1538,15,-8,433,-577
299516,20,60,164,64,66,55,38,23,-7694,-10979,-2287,-9137,1277,1499,18,-35,455,-548
299538,19,39,126,60,72,62,36,25,-7720,-10941,-2363,-9141,1186,1412,43,2,339,-428
299561,18,36,123,62,76,62,35,23,-7734,-10919,-2412,-9144,1116,1356,68,21,215,-273
299576,21,33,106,57,70,61,35,30,-7737,-10910,-2431,-9147,1058,1329,102,11,98,-102
299598,21,32,101,56,58,60,34,32,-7727,-10907,-2433,-9159,1064,1371,125,25,62,44
299621,20,26,88,54,68,54,26,32,-7710,-10909,-2421,-9174,1129,1459,88,6,44,137
299636,20,30,95,58,74,55,25,33,-7693,-10906,-2393,-9199,1159,1529,129,-58,46,228
299658,19,28,101,59,69,57,25,33,-7673,-10897,-2349,-9238,1221,1554,169,-110,69,321
299681,17,28,88,55,71,58,27,28,-7651,-10889,-2305,-9276,1240,1611,146,-116,71,342
299696,17,26,88,58,77,62,26,26,-7634,-10884,-2270,-9305,1213,1613,159,-83,38,296
299718,19,29,82,56,71,55,24,26,-7615,-10880,-2243,-9332,1244,1582,154,-53,62,243
299741,19,26,62,44,56,45,23,25,-7600,-10873,-2235,-9353,1225,1586,124,-23,100,157
299756,21,27,34,33,55,41,23,25,-7590,-10867,-2243,-9367,1217,1567,123,15,114,63
299778,22,29,33,30,56,44,27,27,-7584,-10866,-2256,-9370,1208,1548,100,34,73,4
299801,25,29,30,23,46,36,29,26,-7584,-10864,-2260,-9371,1275,1533,135,-11,28,-24
299823,28,27,26,26,42,39,39,30,-7599,-10862,-2263,-9361,1293,1527,54,-86,8,-107
299838,31,30,25,27,41,39,41,31,-7634,-10868,-2249,-9329,1167,1525,48,-184,-164,-110
299861,29,31,26,29,41,41,42,33,-7670,-10885,-2188,-9293,1122,1515,121,-277,-369,81
299883,28,31,27,30,45,42,38,35,-7708,-10910,-2089,-9255,1150,1524,180,-356,-519,207
299898,26,32,37,37,78,81,43,38,-7754,-10933,-1980,-9213,1215,1567,193,-409,-566,202
299921,23,35,42,40,96,106,40,34,-7809,-10934,-1881,-9187,1336,1559,333,-425,-456,114
299951,22,30,42,41,99,109,40,34,-7862,-10917,-1825,-9173,1398,1576,335,-346,-232,-39
299958,24,29,41,40,102,112,42,30,-7909,-10895,-1817,-9160,1393,1574,272,-219,-57,-204
299981,26,27,41,41,99,111,41,32,-7950,-10870,-1844,-9149,1292,1527,261,-97,60,-287
300003,26,25,27,35,76,86,36,29,-7984,-10844,-1879,-9143,1189,1466,244,-60,114,-274
300018,23,19,21,27,50,50,28,29,-8011,-10823,-1909,-9138,1126,1424,236,-38,86,-214
300041,21,21,23,26,50,46,29,29,-8031,-10815,-1927,-9127,1130,1414,200,-26,21,-162
300063,19,19,24,30,48,48,31,30,-8047,-10810,-1934,-9117,1216,1452,196,-40,-17,-136
300078,19,19,24,31,55,53,33,24,-8062,-10807,-1940,-9106,1229,1496,175,-48,-16,-123
300101,18,19,26,30,55,66,32,23,-8074,-10808,-1937,-9095,1251,1541,161,-61,-41,-69
300123,19,22,26,34,59,73,34,24,-8086,-10808,-1927,-9086,1229,1555,178,-80,-63,-33
300139,18,20,25,34,56,72,30,25,-8102,-10808,-1913,-9075,1244,1567,185,-105,-80,-29
300161,16,20,24,31,51,68,26,26,-8122,-10807,-1907,-9059,1250,1572,174,-97,-76,-94
300183,16,21,23,27,39,62,26,28,-8150,-10806,-1912,-9034,1244,1574,157,-102,-75,-182
300198,16,23,22,31,47,63,27,29,-8185,-10803,-1922,-9004,1214,1570,171,-99,-88,-230
300229,19,25,20,33,51,73,33,28,-8214,-10802,-1930,-8976,1199,1539,171,-79,-87,-210
300243,24,28,20,37,55,83,37,27,-8239,-10805,-1936,-8949,1223,1524,137,-77,-83,-200
300259,24,28,21,38,55,81,37,26,-8268,-10805,-1941,-8921,1221,1529,125,-100,-85,-218
300280,23,26,21,38,55,82,36,24,-8300,-10805,-1941,-8891,1181,1553,121,-133,-103,-189
300303,22,25,21,36,51,75,34,24,-8336,-10809,-1932,-8855,1126,1542,103,-168,-167,-167
300318,21,24,21,33,49,60,26,25,-8376,-10813,-1909,-8817,1130,1536,139,-204,-225,-143
300340,18,20,19,29,42,45,23,26,-8416,-10819,-1880,-8779,1138,1530,164,-209,-261,-122
300363,18,21,22,27,41,49,22,26,-8454,-10828,-1847,-8737,1172,1569,169,-201,-290,-118
300378,20,23,22,28,41,50,23,25,-8493,-10837,-1812,-8695,1194,1579,174,-200,-299,-120
300401,21,23,24,25,38,50,24,26,-8532,-10843,-1777,-8657,1186,1589,221,-202,-293,-103
300431,24,28,26,26,37,50,26,26,-8571,-10848,-1740,-8620,1156,1582,227,-204,-290,-85
300438,24,33,26,28,46,56,28,23,-8610,-10850,-1702,-8586,1136,1564,265,-198,-291,-72
300460,29,33,23,29,47,52,28,26,-8647,-10848,-1667,-8558,1146,1555,268,-200,-242,-74
300483,29,34,24,30,51,53,26,26,-8682,-10843,-1637,-8535,1139,1544,285,-182,-209,-70
300498,28,33,23,32,51,52,30,25,-8708,-10839,-1616,-8517,1110,1510,290,-121,-160,-60
300520,27,28,21,30,45,52,33,25,-8723,-10835,-1603,-8508,1095,1501,307,-50,-103,-29
300543,27,24,24,29,46,51,33,23,-8726,-10834,-1599,-8508,1125,1523,286,14,-34,-6
300558,21,24,25,28,57,54,34,20,-8723,-10833,-1604,-8512,1170,1580,233,29,24,-13
300580,21,22,28,27,58,59,35,24,-8723,-10831,-1616,-8511,1139,1606,218,31,36,-38
300603,21,23,30,25,68,69,33,22,-8723,-10829,-1624,-8512,1131,1574,222,22,26,-26
300618,19,23,35,26,75,72,32,23,-8722,-10825,-1631,-8517,1116,1563,218,16,46,-9
300640,17,22,37,26,70,66,30,23,-8719,-10823,-1639,-8522,1117,1558,226,33,45,-1
300671,19,22,38,29,63,67,28,24,-8712,-10820,-1648,-8530,1124,1576,218,42,65,11
300678,21,22,36,28,65,62,27,22,-8705,-10816,-1656,-8541,1148,1583,212,29,79,18
300700,22,23,35,27,53,49,27,25,-8698,-10814,-1666,-8550,1153,1587,186,33,81,2
300723,22,25,29,26,45,40,23,23,-8692,-10812,-1676,-8556,1134,1584,192,31,71,-1
300745,21,29,30,31,54,44,26,23,-8686,-10809,-1683,-8564,1146,1572,190,17,66,9
300760,19,27,30,32,53,42,25,23,-8681,-10807,-1686,-8572,1128,1557,195,13,50,23
300783,17,28,31,33,46,41,28,24,-8675,-10804,-1687,-8581,1146,1558,210,12,52,28
300805,18,29,30,36,48,45,27,21,-8667,-10801,-1692,-8592,1145,1568,203,22,70,32
300820,18,30,43,39,63,55,32,22,-8658,-10799,-1699,-8602,1151,1576,205,33,72,24
300843,18,29,45,51,64,54,30,22,-8650,-10795,-1707,-8613,1182,1578,204,31,85,7
300866,20,29,43,49,65,53,29,23,-8641,-10792,-1719,-8625,1154,1565,190,44,101,6
300880,19,31,43,49,62,60,29,22,-8630,-10792,-1732,-8633,1133,1567,175,53,88,6
300903,20,31,48,50,62,57,29,22,-8621,-10792,-1738,-8641,1130,1546,186,37,64,21
300925,20,30,39,51,52,56,32,22,-8612,-10793,-1739,-8648,1157,1569,189,23,36,38
300948,21,27,44,41,43,55,31,23,-8604,-10795,-1735,-8654,1162,1559,182,8,18,46
300963,20,27,51,47,48,62,33,23,-8598,-10794,-1730,-8663,1181,1581,187,-16,40,45
300985,20,33,105,55,59,58,33,23,-8593,-10789,-1726,-8675,1165,1597,228,-13,45,65
301000,18,37,109,60,64,65,34,23,-8586,-10781,-1727,-8690,1187,1581,225,-1,88,44
301023,18,37,115,59,64,59,28,24,-8580,-10769,-1735,-8710,1171,1576,257,14,124,34
301045,18,37,115,56,62,59,32,21,-8569,-10762,-1753,-8726,1163,1567,262,83,128,2
301060,17,41,113,51,60,51,29,18,-8552,-10761,-1785,-8737,1133,1552,243,157,137,-29
301083,18,45,72,41,50,44,26,18,-8531,-10763,-1821,-8748,1108,1534,235,188,144,-36
301105,19,43,65,30,42,30,26,21,-8508,-10768,-1852,-8757,1017,1526,236,199,109,27
301121,22,46,54,27,33,23,24,22,-8479,-10779,-1860,-8771,930,1436,226,168,43,152
301143,29,50,53,27,35,29,21,29,-8437,-10794,-1841,-8796,859,1270,230,151,-5,317
301165,30,51,50,29,38,36,28,34,-8364,-10818,-1810,-8843,760,1181,256,261,15,544
301180,32,44,43,31,42,42,29,36,-8251,-10869,-1752,-8898,872,1225,212,380,-74,780
301203,34,63,53,29,40,44,29,35,-8126,-10934,-1667,-8951,993,1253,147,356,-169,893
301225,38,91,73,32,51,66,38,38,-7990,-11007,-1544,-9004,1074,1256,145,308,-293,1061
301240,37,103,80,37,57,79,44,34,-7834,-11114,-1404,-9034,1276,1321,14,392,-476,1108
301263,40,110,81,34,52,77,42,30,-7703,-11198,-1269,-9062,1714,1598,-108,200,-364,942
301285,78,140,100,36,51,80,44,34,-7630,-11265,-1130,-9059,1773,1815,-183,-91,-439,776
301300,101,143,96,42,60,87,48,36,-7604,-11328,-1002,-9018,1533,1792,-135,-210,-594,585
301323,137,159,91,47,55,77,44,43,-7615,-11384,-882,-8950,1407,1551,-77,-301,-696,332
301345,190,220,91,50,60,67,43,46,-7648,-11436,-779,-8865,1439,1485,-45,-316,-733,120
301360,211,238,107,55,64,68,44,50,-7680,-11496,-697,-8765,1436,1350,-12,-201,-782,-51
301383,224,237,110,53,64,70,48,71,-7706,-11556,-614,-8670,1555,1319,-70,-199,-750,-75
301405,219,242,116,52,65,65,49,72,-7710,-11622,-528,-8583,1562,1344,-140,-126,-719,38
301420,227,225,110,47,66,64,47,71,-7694,-11701,-416,-8496,1560,1359,-172,-88,-821,213
301443,197,168,103,43,65,68,52,71,-7691,-11772,-276,-8405,1570,1513,-182,-240,-895,340
301466,201,155,91,38,67,73,53,70,-7706,-11840,-125,-8300,1588,1532,-153,-325,-993,306
301480,267,178,118,46,73,69,53,58,-7737,-11905,6,-8177,1583,1553,-79,-301,-1040,142
301504,278,174,119,48,82,110,60,63,-7753,-11983,95,-8047,1517,1492,-76,-79,-1015,-2
301525,274,170,118,51,78,115,66,67,-7753,-12071,146,-7914,1640,1481,-158,97,-935,-179
301540,279,162,117,53,72,111,64,72,-7727,-12163,180,-7796,1691,1410,-148,277,-861,-195
301570,290,160,115,52,71,110,66,74,-7689,-12260,207,-7681,1508,1432,-195,352,-837,-110
301585,211,115,65,47,66,111,62,65,-7672,-12341,264,-7566,1514,1468,-154,180,-897,-25
301600,197,100,52,43,48,96,84,61,-7670,-12398,328,-7471,1582,1335,-232,2,-750,-57
301623,182,120,64,42,50,93,84,63,-7667,-12436,368,-7408,1536,1283,-277,8,-494,-78
301645,167,133,66,40,53,95,87,57,-7661,-12469,386,-7358,1491,1346,-356,43,-338,-90
301660,174,134,63,43,57,105,101,77,-7677,-12482,420,-7318,1541,1393,-312,-117,-308,-45
301683,199,148,71,49,66,117,109,110,-7688,-12497,469,-7277,1512,1434,-352,-140,-340,55
301705,222,199,97,48,69,105,93,129,-7690,-12521,524,-7230,1506,1448,-505,-149,-348,91
301728,215,199,96,47,74,113,94,130,-7694,-12553,573,-7167,1474,1533,-640,-157,-374,63
301743,213,190,95,46,73,114,95,134,-7703,-12599,631,-7071,1414,1526,-705,-193,-549,12
301765,170,182,96,44,73,144,98,133,-7750,-12636,743,-6941,1298,1256,-491,-455,-881,7
301788,141,166,84,37,65,152,96,193,-7804,-12667,898,-6805,1524,976,-259,-544,-1131,-34
301803,144,123,52,38,62,153,103,206,-7834,-12699,1044,-6688,1563,1075,-25,-301,-1132,65
301826,148,132,38,47,84,211,152,205,-7825,-12731,1188,-6614,1549,1293,53,-53,-990,347
301848,159,178,54,53,101,271,175,264,-7817,-12738,1303,-6588,1484,1372,-97,-89,-582,420
301863,187,178,60,69,118,258,230,364,-7799,-12742,1393,-6583,1561,1325,-475,-128,-288,358
301893,206,199,78,80,128,255,262,341,-7781,-12765,1479,-6540,1344,1327,-515,-92,-447,311
301908,209,226,100,78,131,263,263,333,-7764,-12795,1585,-6476,1418,1314,-309,-57,-702,311
301924,233,238,108,76,124,249,267,349,-7731,-12828,1654,-6435,1623,1454,-373,116,-527,223
301945,235,207,105,77,114,289,290,352,-7681,-12869,1661,-6411,1881,1719,-613,320,-267,45
301968,227,229,114,82,128,341,315,393,-7672,-12889,1665,-6381,1587,1341,-596,39,-186,-101
301991,262,251,217,96,154,407,347,447,-7664,-12907,1753,-6330,1306,1003,-390,-132,-536,182
302005,253,301,243,107,211,551,543,558,-7671,-12928,1779,-6269,1124,1199,-587,-103,-316,-17
302028,242,295,249,122,261,740,637,574,-7673,-12957,1775,-6208,1133,1106,-932,-132,-135,-185
302043,372,379,360,148,300,813,652,591,-7690,-12978,1816,-6133,1345,988,-1155,-420,-239,-173
302065,436,419,413,164,388,892,664,524,-7787,-12957,1956,-6010,1183,1037,-486,-872,-807,72
302088,526,502,491,162,415,900,697,489,-7872,-12896,2002,-6014,1453,1474,93,-376,-173,113
302103,544,488,532,165,462,931,630,469,-7875,-12874,1905,-6088,1434,1418,-510,193,623,-204
302125,607,579,584,201,471,830,580,707,-7914,-12844,1901,-6103,1151,573,-762,-432,292,-241
302148,763,847,846,195,483,792,709,789,-7983,-12756,1983,-6171,1520,854,2,-554,99,229
302163,945,1016,987,193,499,757,732,818,-8006,-12701,1938,-6268,1299,1758,-614,-95,755,265
302186,916,1032,996,222,540,824,747,826,-8014,-12663,1876,-6354,1346,1420,-664,-18,725,38
302208,1017,1141,1041,247,543,729,719,915,-8012,-12621,1832,-6452,1787,1146,-341,57,562,-96
302223,1081,1246,1061,229,530,693,712,776,-8033,-12578,1784,-6522,1534,1537,-443,-48,544,9
302246,1007,1145,881,233,508,640,589,753,-8031,-12549,1710,-6600,1602,1719,-421,173,595,15
302268,908,1039,739,238,460,653,523,818,-8006,-12529,1630,-6688,1587,1326,-471,247,647,-91
302283,898,1027,668,230,394,548,436,1006,-7968,-12513,1549,-6782,1711,1329,-514,304,669,-88
302306,836,916,609,215,317,521,418,958,-7972,-12505,1503,-6802,1417,1628,-583,26,322,-19
302328,768,739,541,249,322,505,403,961,-7950,-12532,1465,-6787,1311,1424,-543,198,43,-86
302343,716,648,480,272,312,523,361,919,-7917,-12520,1444,-6851,1509,898,-230,191,280,-24
302366,646,635,464,276,257,475,441,960,-7897,-12512,1456,-6888,1336,1362,-720,-72,291,258
302388,635,631,473,261,235,441,491,847,-7878,-12538,1499,-6853,1429,1752,-814,-82,-156,309
302405,539,612,402,253,218,415,463,751,-7867,-12543,1525,-6851,1491,1129,-3,115,-254,42
302426,438,575,380,223,170,400,421,724,-7851,-12519,1494,-6917,1604,1092,-32,210,266,-44
302448,365,554,341,190,175,340,421,749,-7830,-12493,1445,-6999,1524,1315,-529,116,598,60
302463,253,466,251,165,156,187,318,585,-7818,-12485,1402,-7035,1418,1585,-656,70,409,73
302486,208,355,198,152,132,139,190,418,-7798,-12496,1359,-7048,1377,1483,-493,189,195,1
302508,202,332,170,141,121,132,182,415,-7792,-12498,1330,-7055,1473,1284,-331,113,91,-106
302523,198,318,151,101,101,125,160,367,-7807,-12503,1319,-7032,1536,1341,-331,-28,-91,-161
302546,193,241,166,67,68,100,98,197,-7817,-12499,1304,-7031,1594,1321,-194,38,-30,-139
302568,150,209,158,47,71,91,79,104,-7814,-12489,1247,-7062,1642,1377,-178,206,220,-192
302583,143,192,134,47,72,81,62,92,-7809,-12469,1167,-7116,1594,1335,-263,214,449,-225
302606,141,167,130,41,60,83,53,89,-7804,-12444,1078,-7179,1537,1308,-319,191,557,-227
13,Repeat 1,,,,,,,,,,,,,,,,,
36,128,121,85,41,56,74,58,109,-7804,-12411,974,-7251,1368,1245,-501,-52,293,-124
51,130,161,119,41,57,73,48,112,-7815,-12404,956,-7253,1396,1381,-440,-66,132,-63
73,127,176,123,41,54,80,51,111,-7823,-12409,942,-7238,1425,1395,-463,-45,28,-93
96,120,171,120,47,63,76,48,93,-7843,-12411,928,-7216,1384,1395,-429,-95,-2,-126
111,119,184,124,43,62,74,38,79,-7872,-12401,929,-7200,1456,1330,-254,-138,-58,-122
133,108,183,125,38,60,66,36,73,-7890,-12394,927,-7193,1471,1321,-228,-71,-31,-99
156,108,138,91,35,51,54,41,76,-7901,-12386,914,-7196,1384,1289,-275,-30,63,-80
171,105,116,75,31,49,53,42,95,-7903,-12382,906,-7203,1377,1301,-304,-8,67,-19
193,138,142,89,27,40,55,47,106,-7900,-12379,916,-7210,1466,1289,-331,-37,20,30
216,172,166,127,30,56,59,53,107,-7905,-12367,932,-7223,1494,1291,-207,-63,4,50
231,198,191,129,33,60,60,63,131,-7898,-12366,935,-7231,1450,1397,-305,21,34,63
253,191,189,128,35,61,62,67,141,-7893,-12373,947,-7223,1428,1420,-369,-14,-61,73
276,196,190,129,41,68,55,64,130,-7895,-12379,969,-7208,1452,1367,-302,-56,-136,46
291,177,182,124,38,65,59,69,129,-7903,-12376,984,-7203,1479,1335,-219,-50,-82,13
313,146,180,101,38,55,52,67,136,-7899,-12378,988,-7203,1462,1331,-287,15,-25,11
344,101,160,90,36,52,53,60,108,-7893,-12382,994,-7201,1476,1377,-320,12,-31,36
351,98,158,89,37,57,55,52,87,-7889,-12385,1002,-7199,1462,1359,-298,9,-41,36
373,103,170,99,30,52,57,60,86,-7883,-12388,1005,-7200,1453,1365,-303,26,-17,30
396,116,172,110,33,57,55,56,98,-7879,-12392,1004,-7199,1465,1385,-306,30,-13,13
411,115,149,100,34,61,62,60,92,-7874,-12398,1000,-7193,1471,1389,-331,39,-24,-20
433,113,137,99,33,60,59,58,90,-7870,-12405,994,-7186,1470,1375,-295,55,-36,-35
456,113,136,97,29,51,57,57,91,-7861,-12411,986,-7189,1460,1334,-302,77,10,-14
471,95,116,86,31,50,51,46,92,-7850,-12416,975,-7193,1454,1353,-314,88,28,-15
493,70,93,63,26,47,55,44,65,-7838,-12421,962,-7199,1451,1365,-329,94,54,-5
516,41,60,39,27,37,52,30,34,-7824,-12425,941,-7209,1463,1373,-347,111,93,-24
531,38,70,38,27,37,56,29,35,-7815,-12426,915,-7220,1485,1389,-356,98,122,-61
553,34,71,37,28,40,57,31,30,-7809,-12425,875,-7233,1495,1435,-345,120,170,-104
576,30,72,32,25,36,57,31,25,-7805,-12418,825,-7257,1495,1432,-335,126,259,-127
591,24,72,30,27,34,52,25,23,-7805,-12397,764,-7299,1460,1386,-304,110,391,-141
613,22,70,26,21,32,49,24,22,-7812,-12367,689,-7350,1434,1364,-284,89,489,-189
636,22,59,22,20,32,45,23,19,-7822,-12329,604,-7410,1425,1317,-237,91,569,-237
651,20,55,27,21,28,40,22,15,-7831,-12286,510,-7480,1425,1310,-187,120,628,-249
673,24,72,33,21,26,36,20,22,-7835,-12242,409,-7553,1366,1277,-185,151,670,-250
696,35,92,45,19,25,29,24,24,-7829,-12195,307,-7638,1385,1307,-203,174,748,-195
711,45,94,75,22,28,32,28,30,-7818,-12144,208,-7735,1345,1308,-129,196,776,-124
733,47,98,97,25,30,32,29,32,-7798,-12096,91,-7830,1361,1400,-178,273,833,-146
756,50,103,108,25,31,35,27,32,-7778,-12050,-28,-7923,1421,1451,-182,275,830,-171
771,49,136,134,27,34,36,28,29,-7758,-11997,-154,-8020,1422,1434,-110,296,859,-200
793,52,164,162,30,35,37,27,31,-7731,-11949,-293,-8114,1470,1475,-54,390,857,-247
816,44,163,161,39,56,50,32,25,-7694,-11914,-451,-8192,1524,1530,6,542,785,-347
831,44,165,193,47,58,50,33,24,-7670,-11867,-636,-8271,1651,1538,-66,497,921,-548
853,43,161,193,49,57,54,33,23,-7649,-11807,-852,-8356,1608,1539,-111,512,1084,-664
876,42,148,190,57,57,57,33,22,-7618,-11741,-1076,-8451,1430,1456,-123,542,1183,-623
891,30,126,226,61,57,56,30,17,-7581,-11670,-1280,-8554,1303,1395,-123,482,1191,-484
913,29,134,262,70,46,48,29,23,-7552,-11595,-1453,-8653,1276,1392,-146,340,1113,-396
944,30,165,343,86,63,67,30,28,-7534,-11516,-1610,-8746,1387,1392,-153,224,1066,-434
951,29,185,375,105,71,66,32,28,-7529,-11416,-1767,-8851,1506,1515,-194,89,1193,-471
973,33,174,383,107,75,66,36,31,-7543,-11295,-1929,-8959,1527,1624,-226,-58,1294,-530
996,43,174,370,114,79,73,38,33,-7564,-11181,-2075,-9051,1317,1626,-157,-89,1146,-452
1018,51,175,349,108,88,74,32,30,-7581,-11088,-2183,-9126,1156,1567,-100,-107,908,-288
1033,58,149,264,101,98,64,30,28,-7621,-11015,-2255,-9164,1293,1685,-102,-241,601,-330
1056,65,123,226,86,104,65,30,31,-7698,-10941,-2312,-9174,1222,1776,-19,-389,411,-412
1078,63,115,229,92,123,69,27,32,-7778,-10871,-2329,-9185,1054,1628,138,-448,242,-254
1093,56,93,229,97,143,78,25,31,-7846,-10802,-2333,-9208,1092,1460,200,-426,248,-213
1116,51,87,256,104,143,76,27,32,-7919,-10728,-2360,-9225,1243,1517,162,-407,319,-385
1138,42,78,259,104,149,96,38,32,-8001,-10650,-2419,-9229,1202,1626,289,-301,336,-531
1153,28,81,262,101,148,104,42,31,-8072,-10586,-2490,-9222,1092,1659,290,-185,292,-512
1176,28,95,275,101,137,99,42,27,-8145,-10533,-2550,-9201,1070,1678,272,-201,180,-504
1198,27,89,255,89,121,97,45,29,-8219,-10492,-2608,-9166,1000,1730,330,-139,72,-498
1221,21,80,217,80,121,113,51,28,-8301,-10454,-2676,-9116,930,1747,340,-114,22,-574
1236,25,76,196,69,97,104,52,26,-8402,-10407,-2774,-9048,812,1733,300,-120,57,-774
1258,24,71,183,67,91,104,50,27,-8505,-10366,-2883,-8964,647,1658,333,-39,-1,-823
1273,24,51,149,64,83,105,51,26,-8599,-10333,-2984,-8879,649,1597,313,-10,-31,-800
1296,27,51,163,71,102,106,52,26,-8678,-10315,-3064,-8796,675,1558,342,38,-124,-697
1318,27,55,200,80,96,91,48,27,-8739,-10309,-3127,-8720,636,1508,351,97,-168,-555
1333,25,98,235,94,108,91,46,32,-8772,-10311,-3180,-8665,703,1541,276,127,-98,-401
1356,26,125,277,102,117,82,44,30,-8786,-10315,-3224,-8630,638,1560,286,157,-46,-214
1378,24,126,269,95,118,83,42,33,-8792,-10315,-3264,-8610,676,1637,251,125,25,-147
1393,24,129,293,94,99,82,38,32,-8819,-10317,-3296,-8566,490,1578,326,103,-140,-179
1424,26,129,287,92,97,80,35,33,-8811,-10328,-3300,-8560,819,1665,281,105,-44,5
1438,28,104,258,82,93,76,33,32,-8809,-10340,-3319,-8540,844,1708,146,72,-23,-107
1453,31,69,215,78,89,81,33,31,-8813,-10357,-3348,-8504,779,1738,121,109,-75,-168
1476,33,79,220,80,96,82,35,29,-8815,-10369,-3365,-8481,724,1735,179,87,-67,-64
1499,34,87,171,72,93,76,36,31,-8811,-10378,-3361,-8475,698,1599,205,38,-59,59
1513,33,99,153,67,103,82,35,30,-8797,-10398,-3351,-8470,780,1679,180,70,-84,101
1536,35,104,179,72,96,74,32,27,-8781,-10419,-3340,-8465,789,1697,223,104,-101,116
1558,33,103,173,70,95,70,30,27,-8749,-10443,-3330,-8472,868,1724,227,162,-46,171
1573,31,94,165,67,89,69,29,26,-8705,-10468,-3333,-8486,899,1758,231,238,29,180
1596,29,81,163,65,88,64,28,23,-8659,-10488,-3355,-8499,910,1793,153,251,115,108
1618,56,68,194,64,75,50,25,21,-8615,-10502,-3381,-8517,914,1816,165,240,156,109
1633,69,52,168,58,78,48,22,21,-8572,-10517,-3408,-8530,950,1856,102,219,153,79
1656,69,52,166,54,67,41,24,22,-8537,-10536,-3428,-8534,875,1841,64,178,86,92
1678,76,58,175,53,68,37,24,26,-8509,-10560,-3434,-8530,869,1795,12,121,0,97
1693,78,89,223,60,69,47,23,28,-8493,-10584,-3431,-8517,895,1791,22,68,-74,65
1716,63,85,203,61,82,47,24,29,-8485,-10605,-3425,-8502,893,1793,89,57,-112,36
1738,45,86,200,59,77,49,28,32,-8474,-10623,-3414,-8495,928,1796,76,35,-79,71
1753,46,115,251,74,85,58,27,33,-8468,-10640,-3401,-8485,924,1800,101,24,-105,61
1776,33,114,262,78,91,60,26,29,-8467,-10656,-3392,-8469,880,1792,140,40,-134,28
1798,26,100,235,76,88,51,27,30,-8471,-10668,-3381,-8455,851,1779,174,28,-133,37
1813,29,103,222,72,84,52,26,30,-8472,-10680,-3371,-8442,833,1756,165,32,-126,47
1836,33,116,268,80,80,49,26,26,-8473,-10689,-3361,-8434,857,1762,154,14,-93,44
1858,43,90,226,69,70,42,24,28,-8472,-10689,-3353,-8438,929,1779,171,-5,-18,43
1873,46,97,210,64,56,42,25,30,-8471,-10686,-3351,-8443,881,1785,156,-5,17,44
1896,48,104,233,77,62,47,27,27,-8470,-10681,-3351,-8450,865,1764,155,-8,31,45
1918,46,104,239,79,49,46,28,26,-8470,-10675,-3350,-8458,898,1787,132,-30,45,35
1941,43,99,192,73,59,45,25,25,-8472,-10670,-3352,-8462,893,1786,127,-24,32,11
1956,34,142,282,82,70,55,33,22,-8472,-10670,-3353,-8462,868,1760,126,0,15,1
1978,32,138,283,85,70,51,33,22,-8469,-10669,-3357,-8464,888,1765,127,11,24,14
2001,27,128,258,72,66,49,33,20,-8467,-10668,-3364,-8465,900,1795,137,22,31,0
2016,25,125,270,71,66,49,32,24,-8467,-10668,-3374,-8461,876,1763,116,25,16,-28
2038,26,127,267,68,57,49,31,27,-8467,-10668,-3375,-8460,851,1742,103,14,-10,-15
2061,24,88,237,65,49,34,25,25,-8466,-10674,-3376,-8454,848,1736,102,15,-33,10
2076,25,87,259,67,52,41,24,23,-8463,-10681,-3374,-8449,849,1705,101,20,-37,28
2098,28,90,256,66,53,42,21,25,-8459,-10688,-3368,-8446,881,1723,106,14,-37,38
2121,28,91,257,72,66,46,28,25,-8456,-10696,-3361,-8441,903,1737,82,-5,-47,31
2136,28,97,289,82,68,53,33,29,-8455,-10701,-3354,-8439,902,1745,95,-12,-34,32
2158,30,93,234,76,67,53,33,28,-8452,-10706,-3349,-8438,900,1743,86,-6,-22,35
2181,30,86,196,69,65,49,33,29,-8452,-10709,-3344,-8435,894,1748,90,-22,-28,26
2196,28,84,203,67,61,45,32,28,-8453,-10714,-3338,-8431,881,1719,80,-19,-38,22
2218,31,94,185,60,47,40,30,27,-8450,-10722,-3329,-8427,855,1695,79,-7,-53,52
2241,30,76,122,41,42,32,26,20,-8445,-10736,-3314,-8420,836,1672,58,0,-88,88
2256,35,87,116,32,40,31,25,22,-8437,-10757,-3290,-8411,781,1657,75,11,-149,151
2278,50,130,143,34,41,32,26,27,-8422,-10787,-3260,-8400,704,1605,60,49,-193,233
2301,50,146,168,38,43,34,28,29,-8393,-10828,-3229,-8388,792,1669,-9,100,-194,261
2316,55,165,181,38,42,32,24,29,-8373,-10875,-3209,-8354,816,1715,17,159,-286,139
2338,64,177,205,52,49,40,25,38,-8358,-10931,-3188,-8303,754,1753,18,185,-381,131
2361,66,184,223,53,49,43,26,41,-8349,-10991,-3142,-8252,724,1670,187,192,-524,210
2376,55,160,209,52,47,44,23,38,-8334,-11028,-3063,-8248,790,1632,203,22,-372,427
2398,58,156,199,50,46,42,22,37,-8294,-11059,-2963,-8283,951,1537,137,-34,-226,589
2421,63,155,214,56,51,44,26,39,-8240,-11088,-2886,-8325,1198,1565,119,64,-101,462
2436,56,143,197,45,42,34,25,30,-8162,-11124,-2849,-8366,1117,1653,145,302,-10,459
2458,52,132,175,44,38,30,23,26,-8076,-11163,-2813,-8409,908,1580,110,335,11,579
2481,82,180,177,51,46,28,23,35,-7990,-11199,-2733,-8470,749,1461,88,168,-32,844
2496,89,176,156,51,47,33,25,44,-7880,-11257,-2608,-8535,673,1367,34,167,-165,1146
2518,145,157,107,45,45,32,23,44,-7720,-11355,-2447,-8599,801,1202,-9,351,-331,1374
2541,197,172,97,47,47,37,29,51,-7526,-11479,-2262,-8657,1152,1242,49,522,-495,1465
2556,200,166,91,45,47,36,28,50,-7305,-11617,-2087,-8706,1796,1527,82,739,-559,1348
2578,193,111,78,36,39,36,28,45,-7091,-11762,-1977,-8713,2402,1974,-213,856,-526,914
2601,192,119,72,35,36,33,26,34,-6954,-11854,-1925,-8711,2433,2282,-498,507,-229,524
2616,159,113,60,32,34,36,23,32,-6930,-11874,-1907,-8708,1975,2293,-568,-42,26,201
2638,91,82,51,30,38,40,24,23,-6953,-11870,-1903,-8695,1467,1978,-513,-235,63,45
2661,87,81,46,31,37,44,25,23,-7003,-11857,-1884,-8677,1240,1633,-426,-382,-7,-26
2676,80,74,44,32,40,55,26,22,-7080,-11836,-1836,-8653,1145,1369,-294,-562,-132,-72
2698,71,44,32,31,42,60,29,28,-7164,-11819,-1761,-8623,1157,1272,-207,-623,-272,-39
2721,70,42,32,29,41,60,29,27,-7220,-11828,-1663,-8583,1217,1151,-192,-504,-433,65
2736,63,43,28,26,34,57,25,26,-7236,-11858,-1543,-8551,1348,1146,-246,-382,-484,250
2758,66,40,25,24,36,61,26,26,-7225,-11895,-1406,-8533,1412,1205,-227,-298,-481,445
2781,71,47,25,23,32,53,26,39,-7202,-11932,-1252,-8524,1324,1257,-201,-288,-494,643
2796,103,57,22,23,31,52,32,42,-7178,-11972,-1085,-8511,1261,1307,-170,-298,-557,747
2818,105,70,32,27,39,65,39,48,-7171,-12012,-907,-8482,1260,1368,-194,-395,-647,746
2841,106,70,32,26,39,63,40,51,-7187,-12049,-725,-8432,1382,1461,-218,-503,-744,638
2863,107,69,33,27,38,84,43,57,-7232,-12080,-551,-8363,1482,1471,-173,-583,-811,452
2878,125,65,32,28,39,86,51,108,-7280,-12109,-390,-8287,1565,1424,-182,-568,-816,326
2901,144,61,32,29,41,85,46,111,-7321,-12145,-245,-8205,1548,1331,-196,-481,-812,245
2923,141,80,31,27,41,100,46,113,-7351,-12184,-112,-8121,1482,1317,-153,-373,-821,242
2938,144,83,36,34,58,136,61,118,-7364,-12236,6,-8032,1470,1312,-193,-237,-824,214
2961,156,95,39,35,59,135,70,154,-7393,-12281,122,-7936,1547,1283,-247,-326,-825,113
2983,145,95,44,39,64,145,79,154,-7436,-12317,239,-7837,1568,1296,-280,-422,-806,70
2998,109,96,44,40,63,146,84,156,-7466,-12364,359,-7728,1467,1245,-280,-346,-889,109
3021,117,85,45,39,58,130,87,154,-7493,-12413,488,-7616,1519,1292,-250,-327,-950,145
3043,149,110,73,40,48,112,84,161,-7528,-12449,608,-7513,1574,1341,-243,-359,-872,108
3060,184,148,88,46,63,162,109,202,-7567,-12478,701,-7416,1585,1370,-276,-323,-751,13
3081,183,154,87,42,61,168,120,205,-7601,-12518,785,-7306,1426,1260,-418,-318,-747,-43
3103,193,169,162,47,62,173,118,203,-7640,-12567,881,-7168,1397,1225,-411,-343,-932,-85
3118,210,207,174,50,71,182,123,204,-7684,-12613,998,-7024,1431,1180,-308,-391,-1052,-57
3141,203,215,178,48,77,185,137,202,-7745,-12635,1110,-6899,1529,1289,-227,-454,-946,-59
3163,173,196,180,42,76,164,135,148,-7793,-12649,1208,-6802,1626,1253,-256,-393,-770,-63
3178,179,212,191,42,81,177,139,117,-7830,-12665,1280,-6717,1566,1241,-366,-314,-619,-106
3201,277,365,242,51,108,216,190,130,-7878,-12672,1338,-6636,1455,1258,-375,-350,-523,-132
3223,308,425,267,65,116,233,212,155,-7941,-12661,1406,-6566,1458,1312,-364,-479,-461,-69
3238,321,482,323,90,130,242,226,250,-7989,-12646,1460,-6526,1466,1239,-438,-407,-262,-48
3261,321,499,338,102,141,245,228,254,-8035,-12630,1516,-6487,1398,1127,-333,-385,-298,-47
3283,328,522,352,106,147,257,224,255,-8091,-12597,1565,-6470,1518,1349,-272,-401,-167,7
3298,331,587,423,108,172,278,225,274,-8128,-12554,1612,-6495,1629,1338,-337,-357,53,117
3321,336,604,480,114,201,321,269,289,-8140,-12527,1629,-6527,1549,1448,-477,-174,178,135
3343,396,657,502,127,255,354,444,602,-8155,-12514,1630,-6535,1541,1528,-446,-109,82,21
3358,552,713,597,190,306,380,515,713,-8187,-12494,1638,-6530,1516,1353,-435,-240,36,-84
3381,666,735,699,275,343,444,604,900,-8213,-12438,1660,-6600,1610,968,51,-167,203,40
3403,710,741,772,291,345,515,658,960,-8165,-12437,1610,-6672,1467,1662,-735,241,570,208
3418,711,777,787,299,355,531,646,1087,-8138,-12455,1582,-6678,1379,1672,-787,98,223,98
3442,812,807,866,317,342,526,559,1038,-8139,-12453,1608,-6675,1520,1232,-350,-82,-86,20
3463,856,791,858,296,316,531,504,1047,-8134,-12429,1613,-6723,1690,1199,20,86,73,30
3478,846,877,783,263,344,538,479,905,-8103,-12424,1551,-6785,1521,1456,-332,305,422,-2
3501,849,838,676,266,345,482,470,843,-8074,-12435,1493,-6814,1359,1406,-623,205,363,-50
3524,908,875,769,261,354,464,469,686,-8069,-12417,1475,-6856,1503,1198,-259,48,233,-18
3538,804,810,677,252,350,484,463,536,-8044,-12399,1399,-6932,1541,1490,-268,303,531,-18
3561,677,800,607,251,370,490,489,392,-8018,-12418,1324,-6942,1264,1314,-775,178,388,-187
3583,643,721,647,239,349,482,447,438,-8047,-12393,1346,-6950,1478,988,-241,-248,11,-93
3598,570,727,697,224,345,461,392,499,-8056,-12356,1346,-7006,1532,1365,-153,-52,260,127
3621,536,729,600,215,329,464,401,548,-8030,-12352,1295,-7053,1427,1518,-574,152,450,60
3643,515,701,560,196,330,453,385,549,-8007,-12395,1271,-7007,1222,1545,-1005,13,51,-31
3658,491,671,557,178,284,429,345,521,-8060,-12370,1332,-6979,1571,1022,-15,-368,-330,-111
3681,439,717,549,130,231,353,300,526,-8081,-12336,1341,-7013,1577,1246,-19,-98,92,12
3703,440,678,487,109,207,325,250,501,-8075,-12329,1302,-7040,1397,1420,-387,84,274,-24
3718,318,534,381,106,180,299,245,422,-8054,-12359,1273,-7016,1304,1488,-617,123,34,-45
3741,314,520,372,79,123,241,224,385,-8063,-12372,1291,-6979,1464,1246,-228,-40,-265,-103
3763,320,516,372,66,119,193,204,419,-8064,-12368,1280,-6989,1666,1281,-8,117,-56,-128
3780,285,496,365,76,119,179,184,381,-8047,-12381,1225,-6994,1532,1591,-296,268,119,-129
3801,245,453,297,81,111,178,175,334,-8029,-12403,1175,-6985,1446,1492,-401,224,72,-155
3823,238,430,283,77,82,103,101,314,-8012,-12426,1139,-6969,1412,1370,-436,175,18,-161
3846,251,426,281,73,79,92,92,314,-8007,-12439,1103,-6957,1452,1368,-336,131,15,-189
3861,221,424,269,71,76,87,71,258,-8008,-12446,1062,-6950,1478,1453,-285,132,44,-192
3884,198,260,147,46,48,79,55,167,-8003,-12451,1011,-6954,1491,1481,-240,201,104,-187
3906,178,216,128,32,43,65,51,114,-7998,-12448,951,-6975,1385,1265,-280,166,241,-222
3921,167,197,126,24,35,57,39,104,-7978,-12452,881,-6999,1414,1356,-427,225,320,-203
3943,127,181,116,27,36,53,37,87,-7962,-12453,813,-7024,1395,1420,-435,204,328,-171
0,Repeat 2,,,,,,,,,,,,,,,,,
15,100,108,120,24,33,33,30,32,-7958,-12423,707,-7091,1369,1339,-248,63,326,-133
38,146,128,147,28,37,39,32,40,-7957,-12404,653,-7131,1372,1302,-239,106,339,-140
61,146,128,147,28,39,48,32,39,-7936,-12394,582,-7178,1408,1375,-274,253,402,-139
75,136,128,151,25,38,54,32,39,-7912,-12381,500,-7233,1442,1435,-265,289,468,-142
98,125,108,123,26,39,57,33,38,-7890,-12363,415,-7295,1413,1413,-256,275,521,-142
120,125,108,111,27,37,57,33,38,-7870,-12339,331,-7360,1395,1389,-249,244,552,-135
135,55,104,81,24,32,52,30,30,-7853,-12311,249,-7429,1351,1294,-255,202,577,-144
158,61,111,84,28,29,44,32,28,-7836,-12278,173,-7502,1370,1288,-218,185,585,-119
180,65,109,79,29,31,33,29,31,-7810,-12247,99,-7580,1386,1324,-216,220,595,-65
195,67,146,94,30,34,33,29,32,-7776,-12217,18,-7663,1440,1380,-211,278,631,-57
218,68,143,86,28,33,34,29,30,-7735,-12186,-74,-7754,1474,1435,-185,341,688,-57
240,65,121,88,31,34,36,29,30,-7695,-12154,-175,-7843,1482,1491,-194,356,716,-82
255,59,123,110,27,34,36,29,30,-7657,-12118,-280,-7932,1450,1479,-190,339,742,-97
278,47,125,146,36,30,36,29,25,-7622,-12076,-379,-8024,1439,1454,-169,300,752,-80
300,39,86,170,48,26,30,28,22,-7587,-12028,-479,-8123,1428,1404,-150,283,797,-77
315,33,82,188,58,27,31,28,23,-7556,-11969,-584,-8233,1448,1432,-144,248,892,-84
338,30,86,197,61,32,37,28,25,-7518,-11913,-705,-8338,1459,1419,-164,310,922,-153
360,39,79,219,65,31,38,25,22,-7483,-11852,-840,-8443,1459,1440,-166,322,975,-213
375,39,85,200,63,40,44,26,21,-7451,-11790,-985,-8542,1433,1474,-223,304,1015,-260
398,39,78,172,54,43,44,26,19,-7441,-11721,-1140,-8627,1388,1501,-239,223,1005,-381
420,39,77,161,46,48,48,25,19,-7439,-11653,-1284,-8699,1276,1427,-261,148,937,-388
435,37,75,171,50,46,45,27,17,-7443,-11593,-1413,-8757,1201,1376,-258,97,817,-377
458,20,73,170,67,62,52,31,28,-7462,-11538,-1520,-8795,1221,1380,-227,3,655,-400
481,21,66,173,74,76,66,32,31,-7491,-11492,-1597,-8816,1334,1438,-211,-97,480,-379
495,21,75,221,81,82,73,32,32,-7531,-11450,-1654,-8827,1394,1575,-136,-161,341,-346
518,33,82,227,88,84,73,33,32,-7578,-11405,-1676,-8840,1340,1530,-40,-265,240,-223
541,37,105,227,91,85,72,34,31,-7613,-11374,-1684,-8849,1229,1461,10,-202,132,-114
555,39,142,258,97,86,76,35,25,-7636,-11353,-1699,-8853,1177,1393,87,-80,90,-122
587,40,154,278,102,74,64,34,23,-7655,-11327,-1740,-8862,1190,1497,194,39,151,-171
601,39,157,293,105,69,58,33,24,-7663,-11297,-1801,-8881,1316,1558,228,137,255,-230
615,32,158,291,104,63,55,32,26,-7663,-11271,-1904,-8893,1290,1573,157,283,356,-378
638,30,145,278,100,64,57,31,27,-7659,-11249,-2020,-8899,1236,1572,114,331,377,-417
660,26,102,223,81,49,44,24,27,-7654,-11227,-2138,-8903,1193,1540,73,326,383,-427
683,23,73,192,69,49,46,24,27,-7649,-11207,-2247,-8906,1129,1524,10,276,374,-381
698,24,57,136,63,51,48,25,27,-7651,-11192,-2344,-8897,1100,1512,-26,222,287,-389
720,21,47,133,76,63,51,27,25,-7666,-11182,-2416,-8877,1148,1529,1,130,146,-377
735,17,70,206,92,79,57,31,27,-7690,-11175,-2470,-8851,1205,1579,-2,53,60,-370
758,20,79,226,96,80,64,40,27,-7711,-11164,-2509,-8836,1252,1633,48,23,65,-284
780,20,89,230,95,76,61,39,26,-7727,-11140,-2571,-8835,1190,1671,63,68,210,-302
803,19,91,235,94,75,60,38,28,-7739,-11114,-2653,-8832,1042,1671,108,158,254,-312
818,19,105,242,84,70,61,40,27,-7741,-11093,-2751,-8828,974,1676,128,267,279,-326
840,20,93,194,65,57,60,38,26,-7746,-11072,-2852,-8817,991,1710,98,261,270,-369
863,22,88,175,65,62,53,29,26,-7754,-11058,-2949,-8796,1004,1739,58,250,203,-388
878,23,88,240,84,74,56,32,26,-7761,-11050,-3042,-8769,986,1754,6,239,170,-377
900,28,117,258,97,80,59,33,25,-7770,-11041,-3116,-8746,944,1716,-16,161,142,-307
923,30,110,267,102,83,57,31,27,-7781,-11028,-3168,-8734,1009,1741,-9,69,134,-230
938,35,112,278,106,81,49,28,26,-7795,-11014,-3209,-8723,981,1724,-20,15,109,-197
960,32,117,318,119,98,53,29,24,-7809,-11001,-3236,-8717,928,1684,20,-6,77,-124
983,33,121,299,110,103,51,29,23,-7820,-10986,-3251,-8721,952,1649,63,-33,81,-62
998,30,93,277,100,99,47,28,22,-7820,-10968,-3268,-8737,1006,1684,54,-14,156,-26
1020,29,86,269,92,100,54,31,20,-7819,-10955,-3298,-8744,963,1703,19,38,150,-72
1043,23,83,280,103,111,58,30,20,-7822,-10942,-3331,-8744,881,1636,18,37,129,-95
1058,23,87,261,91,94,56,29,21,-7824,-10934,-3360,-8741,915,1713,11,43,99,-80
1080,22,76,243,93,78,55,26,20,-7827,-10930,-3383,-8735,881,1704,4,31,61,-46
1103,33,78,242,97,90,60,35,24,-7831,-10931,-3393,-8726,908,1699,-24,-3,3,-23
1118,33,81,277,118,88,57,34,22,-7839,-10939,-3392,-8709,895,1694,4,-10,-92,-1
1140,34,87,274,116,75,57,36,28,-7842,-10942,-3376,-8708,979,1690,46,-52,-61,64
1163,34,80,252,111,74,55,37,27,-7841,-10942,-3362,-8716,1018,1719,32,-57,-3,83
1178,36,75,237,106,80,54,38,27,-7839,-10943,-3358,-8717,1013,1760,34,-9,-5,41
1202,24,71,237,103,69,49,30,26,-7840,-10943,-3359,-8716,967,1752,43,-4,-14,-5
1223,22,72,215,86,68,43,26,27,-7841,-10943,-3361,-8715,955,1719,42,-10,-14,-3
1238,21,71,199,69,75,48,30,20,-7841,-10943,-3361,-8714,949,1663,15,9,-11,12
1260,22,66,201,71,77,52,29,21,-7837,-10944,-3359,-8717,962,1625,37,8,10,39
1283,26,71,208,82,87,70,32,24,-7828,-10945,-3353,-8727,1043,1665,21,-7,34,55
1298,29,89,220,81,95,76,37,27,-7819,-10946,-3351,-8734,1030,1681,31,14,32,52
1320,36,88,194,78,92,74,38,29,-7810,-10945,-3349,-8743,983,1683,38,10,43,71
1343,37,90,180,84,88,72,35,30,-7803,-10946,-3345,-8751,975,1690,28,1,26,82
1358,36,91,186,93,87,72,36,30,-7798,-10950,-3339,-8752,963,1695,16,-8,-11,79
1380,33,118,191,89,75,54,33,28,-7796,-10955,-3330,-8751,975,1690,20,-16,-34,66
1403,31,110,184,98,59,47,28,25,-7792,-10960,-3319,-8753,1002,1694,28,-20,-26,83
1418,23,120,171,94,62,49,28,23,-7789,-10961,-3307,-8759,1020,1696,53,-24,-14,82
1440,21,121,196,95,70,43,25,24,-7784,-10961,-3295,-8768,1017,1698,54,-26,7,98
1463,24,124,202,91,70,38,23,24,-7775,-10958,-3281,-8784,1039,1681,53,-30,37,119
1478,25,99,197,88,69,40,22,25,-7764,-10956,-3270,-8801,1043,1677,51,-16,51,119
1500,33,104,266,99,80,38,24,23,-7751,-10956,-3266,-8814,1031,1694,26,9,61,105
1523,38,88,285,109,85,41,24,22,-7737,-10954,-3263,-8831,1014,1694,54,18,77,119
1538,39,82,275,108,75,45,24,20,-7718,-10953,-3255,-8850,1042,1666,75,36,68,142
1560,41,75,268,104,77,46,24,20,-7697,-10958,-3252,-8864,1041,1663,52,62,49,123
1583,39,81,280,101,76,43,23,20,-7677,-10964,-3254,-8873,1060,1680,29,77,52,89
1598,32,72,208,77,66,41,23,22,-7656,-10968,-3263,-8883,1074,1690,14,88,78,68
1620,26,70,186,60,63,42,21,21,-7640,-10972,-3271,-8889,1073,1704,-9,65,65,46
1643,24,71,193,59,61,38,21,20,-7630,-10979,-3276,-8887,1049,1700,-30,36,15,35
1658,19,82,200,64,59,38,25,21,-7627,-10987,-3272,-8882,1038,1690,-20,-3,-27,41
1680,24,73,175,67,65,48,30,20,-7630,-10996,-3263,-8871,1028,1694,-20,-30,-79,36
1703,29,75,179,66,69,51,28,25,-7637,-11006,-3249,-8858,1038,1685,18,-37,-122,30
1718,28,81,194,62,65,46,30,25,-7643,-11016,-3232,-8846,1060,1670,24,-41,-124,36
1740,29,94,236,70,67,49,31,26,-7648,-11024,-3216,-8838,1056,1677,41,-34,-101,45
1763,29,87,235,68,68,50,28,29,-7650,-11029,-3206,-8833,1062,1689,49,-14,-71,37
1785,26,93,257,74,73,45,25,29,-7653,-11032,-3200,-8829,1062,1683,46,-11,-43,19
1801,23,89,252,73,70,45,25,26,-7656,-11031,-3198,-8828,1052,1675,60,-9,-22,7
1823,23,100,247,76,75,46,24,25,-7659,-11027,-3196,-8831,1057,1681,61,-17,11,17
1845,24,93,224,78,74,46,21,29,-7659,-11027,-3196,-8832,1079,1667,58,-2,14,10
1861,25,107,220,76,70,42,21,26,-7655,-11025,-3201,-8836,1076,1666,46,25,35,1
1883,25,103,200,68,61,38,21,25,-7652,-11024,-3210,-8837,1063,1669,8,20,43,-12
1906,24,107,201,71,54,35,23,27,-7646,-11024,-3219,-8838,1048,1668,10,36,39,-2
1921,23,101,206,75,52,35,25,29,-7640,-11026,-3225,-8838,1036,1644,3,31,24,13
1943,23,100,167,62,57,40,28,27,-7631,-11030,-3228,-8841,1043,1637,-3,33,25,32
1966,21,82,152,57,59,43,32,31,-7623,-11035,-3226,-8842,1057,1639,-23,16,11,43
1980,20,80,146,55,65,44,32,31,-7617,-11040,-3220,-8842,1061,1638,-15,-5,-15,48
2003,21,78,162,62,65,45,30,31,-7612,-11048,-3210,-8841,1073,1639,-7,-5,-38,54
2026,45,85,144,55,59,42,27,31,-7608,-11057,-3196,-8837,1031,1640,0,-12,-68,83
2040,54,89,136,52,52,35,24,30,-7604,-11071,-3176,-8831,973,1637,5,-11,-112,132
2071,56,104,138,52,48,31,19,29,-7599,-11094,-3148,-8817,959,1619,-4,0,-182,160
2085,56,105,131,54,33,27,17,30,-7592,-11125,-3112,-8797,876,1555,-28,2,-239,211
2101,57,105,86,43,33,36,29,31,-7568,-11170,-3055,-8780,729,1444,-46,33,-313,404
2123,43,91,75,38,38,54,31,33,-7521,-11235,-2961,-8770,603,1314,11,84,-434,675
2145,31,79,85,39,39,57,33,35,-7440,-11303,-2793,-8806,696,1195,187,35,-476,1123
2160,52,83,83,39,42,60,33,32,-7318,-11364,-2571,-8897,824,1055,14,-115,-291,1512
2183,58,96,96,40,46,62,35,32,-7143,-11452,-2301,-9000,853,944,42,-7,-395,1909
2205,63,101,93,36,45,57,26,30,-6908,-11585,-2011,-9082,952,888,37,296,-616,2150
2220,63,117,93,36,44,43,23,28,-6635,-11744,-1723,-9140,1538,925,105,537,-777,2175
2243,85,115,88,32,42,36,22,30,-6357,-11908,-1507,-9164,2117,1338,-59,811,-759,1829
2265,98,110,79,33,40,39,24,31,-6139,-12065,-1393,-9125,2589,1937,-570,788,-684,1024
2280,106,96,57,30,32,37,24,32,-6069,-12157,-1368,-9053,2323,2291,-698,335,-459,352
2303,111,85,54,30,32,34,27,32,-6065,-12226,-1319,-8971,1834,2013,-573,-18,-544,273
2325,129,79,52,32,29,34,28,33,-6103,-12280,-1228,-8883,1519,1441,-463,-347,-661,168
2340,126,91,41,30,35,37,29,33,-6167,-12321,-1127,-8795,1448,1214,-363,-485,-693,57
2363,108,78,38,30,33,31,28,33,-6221,-12370,-1047,-8697,1576,1175,-341,-351,-733,-83
2385,108,80,37,29,35,32,28,32,-6254,-12427,-978,-8600,1657,1138,-335,-206,-742,-106
2400,153,83,38,28,36,41,28,55,-6259,-12489,-898,-8515,1617,1091,-406,-139,-702,43
2423,245,122,53,33,43,51,36,97,-6237,-12553,-807,-8446,1660,1127,-545,-90,-605,208
2445,257,118,54,35,47,54,38,100,-6203,-12620,-725,-8378,1697,1254,-579,0,-592,259
2460,261,117,53,34,48,54,40,102,-6166,-12709,-642,-8278,1711,1412,-656,74,-770,271
2483,260,124,53,34,48,54,39,102,-6176,-12802,-537,-8132,1692,1598,-719,-165,-1033,222
2505,240,137,53,35,45,51,38,93,-6240,-12884,-399,-7961,1771,1610,-726,-500,-1211,134
2520,139,98,33,29,40,41,30,47,-6334,-12934,-250,-7809,1928,1448,-633,-712,-1142,8
2543,108,98,31,24,30,36,25,37,-6434,-12953,-120,-7699,1921,1312,-466,-712,-902,-61
2565,95,97,32,24,29,36,22,29,-6520,-12950,-22,-7631,1803,1208,-363,-604,-614,-78
2580,89,88,30,22,27,33,23,31,-6599,-12931,43,-7597,1634,1185,-313,-512,-342,-85
2603,70,62,28,24,27,29,21,28,-6673,-12899,84,-7586,1526,1184,-264,-441,-152,-88
2625,48,49,26,25,24,29,21,43,-6742,-12859,109,-7592,1495,1183,-250,-396,-17,-102
2640,60,36,25,27,27,29,23,51,-6812,-12813,120,-7607,1459,1230,-282,-389,98,-121
2663,61,34,24,27,30,50,27,62,-6877,-12767,124,-7627,1490,1243,-319,-373,149,-130
2685,80,33,24,27,30,52,29,71,-6940,-12721,128,-7646,1455,1242,-370,-380,177,-121
2708,78,33,23,24,32,52,40,118,-6998,-12676,142,-7667,1485,1253,-407,-407,187,-70
2723,78,32,22,20,31,58,52,134,-7060,-12629,163,-7688,1544,1286,-451,-463,185,-54
2745,64,31,22,25,29,71,55,143,-7129,-12582,198,-7700,1573,1336,-506,-555,140,-33
2768,87,41,20,27,31,61,54,143,-7210,-12539,258,-7693,1547,1406,-495,-658,0,36
2783,76,40,21,27,29,61,59,143,-7303,-12498,332,-7669,1545,1438,-436,-724,-137,33
2805,75,38,22,29,30,62,53,123,-7411,-12452,407,-7637,1521,1395,-391,-798,-168,-30
2828,77,38,20,33,35,75,51,101,-7539,-12391,468,-7607,1562,1354,-367,-890,-81,-173
2843,80,38,18,29,37,64,50,114,-7680,-12317,507,-7583,1549,1344,-343,-922,35,-295
2865,55,30,23,30,34,63,54,121,-7825,-12242,535,-7555,1548,1298,-376,-938,75,-387
2888,49,32,22,31,36,65,48,116,-7986,-12166,554,-7508,1511,1312,-436,-1023,62,-509
2903,45,34,21,29,36,67,52,102,-8166,-12089,587,-7436,1301,1314,-436,-1159,-57,-498
2925,42,38,24,25,27,43,48,102,-8355,-12010,666,-7345,1153,1200,-320,-1296,-282,-384
2948,82,52,37,25,27,40,46,68,-8545,-11929,781,-7247,1093,1086,-109,-1324,-479,-285
2963,83,54,40,22,27,39,42,46,-8715,-11853,908,-7154,1141,996,177,-1156,-621,-224
2985,89,60,44,22,26,36,44,43,-8845,-11802,1015,-7066,1236,1041,391,-785,-688,-227
3008,95,73,46,21,23,33,39,38,-8935,-11769,1069,-6998,1379,1136,322,-463,-480,-317
3023,118,91,58,30,32,56,35,42,-8996,-11735,1090,-6974,1386,1155,263,-280,-185,-243
3045,103,86,55,31,42,76,56,96,-9022,-11707,1106,-6984,1355,1155,108,-161,5,-65
3068,106,89,64,32,45,95,62,103,-9028,-11688,1137,-7004,1343,1203,-57,-153,36,95
3084,108,95,67,35,46,104,63,134,-9038,-11672,1181,-7011,1270,1258,-46,-197,-70,152
3105,141,92,77,37,47,108,66,152,-9054,-11665,1236,-6991,1351,1376,-129,-257,-196,104
3128,164,229,137,33,51,105,76,163,-9080,-11664,1307,-6946,1363,1395,-135,-329,-351,72
3143,191,245,149,35,46,94,65,145,-9113,-11659,1384,-6897,1384,1324,12,-326,-438,36
3167,210,259,164,39,54,80,66,174,-9130,-11655,1449,-6868,1561,1299,-18,-231,-315,10
3188,244,318,200,44,75,105,73,171,-9141,-11650,1508,-6850,1490,1313,-102,-228,-223,72
3203,287,355,234,71,126,207,148,189,-9154,-11637,1579,-6837,1336,1133,55,-231,-279,131
3225,280,311,218,94,140,234,191,254,-9146,-11626,1643,-6851,1415,1142,121,-79,-195,214
3248,274,320,233,138,175,275,212,315,-9096,-11642,1687,-6881,1541,1367,-229,97,-18,316
3263,450,445,256,174,208,307,302,380,-9080,-11604,1711,-6959,1652,1384,235,42,204,309
3285,475,451,264,190,225,345,355,592,-9014,-11585,1659,-7089,1615,1416,-81,385,691,317
3308,465,504,273,198,215,313,376,730,-8937,-11617,1610,-7145,1535,1711,-649,334,491,249
3323,493,498,294,204,243,301,360,724,-8912,-11631,1606,-7153,1494,1699,-327,55,105,178
3345,508,517,287,182,223,316,419,778,-8895,-11617,1599,-7200,1711,1494,163,150,141,120
3368,408,438,284,183,200,314,417,786,-8854,-11616,1560,-7260,1565,1258,-53,287,336,47
3383,393,469,338,203,211,284,400,659,-8827,-11630,1535,-7275,1408,1437,-319,117,196,56
3405,483,496,330,219,218,313,411,536,-8834,-11611,1542,-7297,1484,1366,-45,-90,116,82
3428,476,512,315,225,195,351,446,599,-8823,-11581,1507,-7364,1654,1415,123,133,377,59
3443,476,482,305,233,206,340,417,553,-8810,-11587,1450,-7381,1442,1512,-288,129,316,-73
3465,464,478,291,225,208,317,365,517,-8823,-11592,1439,-7360,1327,1199,-193,-82,10,-160
3488,498,417,193,205,180,301,343,518,-8837,-11574,1438,-7372,1509,1293,169,-30,25,-43
3503,433,282,152,173,160,273,296,556,-8823,-11578,1388,-7391,1431,1416,-55,194,217,-81
3525,453,306,235,168,168,227,234,495,-8798,-11610,1365,-7376,1353,1338,-401,107,63,-62
3548,447,368,309,188,159,180,169,440,-8820,-11611,1398,-7341,1464,1290,51,-148,-264,-65
3563,435,346,312,170,149,183,171,411,-8820,-11602,1394,-7357,1541,1216,217,82,-5,-58
3585,427,384,337,159,146,188,172,389,-8800,-11616,1358,-7364,1444,1462,-128,179,125,-39
3608,395,398,343,157,151,166,178,266,-8775,-11658,1347,-7331,1369,1464,-381,118,-85,-36
3623,343,373,285,145,116,168,206,252,-8781,-11667,1378,-7303,1489,1193,69,-44,-272,-69
3645,338,371,222,113,121,168,201,235,-8771,-11664,1371,-7321,1585,1308,209,153,-12,-25
3668,310,377,206,118,118,159,188,239,-8740,-11682,1319,-7340,1447,1501,-78,311,179,-27
3690,218,327,153,129,121,147,169,221,-8700,-11717,1276,-7338,1448,1469,-212,318,66,-62
3705,195,302,134,129,111,130,127,214,-8665,-11756,1249,-7322,1437,1369,-188,277,-54,-88
3728,232,303,134,118,110,94,64,148,-8638,-11781,1221,-7319,1516,1335,17,286,-48,-109
3750,216,237,97,103,93,73,58,152,-8595,-11816,1175,-7320,1501,1423,-73,407,22,-97
3765,205,206,89,88,86,65,57,135,-8568,-11842,1137,-7317,1382,1290,-178,248,52,-126
3788,193,194,79,58,67,56,53,136,-8552,-11856,1115,-7316,1382,1217,-164,136,40,-105
3810,189,194,83,52,55,55,49,118,-8531,-11869,1110,-7320,1441,1277,-193,106,20,-3
3825,116,136,73,42,45,49,43,109,-8505,-11887,1110,-7322,1474,1421,-199,129,-19,62
3848,119,141,80,42,36,46,43,82,-8480,-11904,1106,-7323,1509,1484,-158,152,-27,52
17,Repeat 3,,,,,,,,,,,,,,,,,
32,116,149,82,33,38,46,31,37,-8424,-11944,1028,-7334,1481,1439,-149,321,111,-104
54,104,139,77,31,39,43,28,36,-8383,-11967,955,-7354,1477,1465,-105,442,200,-140
77,95,125,72,31,41,42,26,34,-8338,-11984,869,-7388,1481,1432,-64,495,291,-153
92,56,92,92,30,42,39,28,31,-8298,-11988,778,-7436,1432,1359,-58,452,394,-154
114,41,87,119,41,42,36,28,25,-8263,-11981,689,-7494,1408,1297,-67,393,470,-140
137,46,91,197,55,44,34,30,24,-8224,-11966,595,-7568,1416,1313,-79,390,571,-107
159,45,93,227,63,42,38,29,22,-8194,-11938,504,-7652,1389,1313,-108,300,659,-72
174,48,91,225,65,44,39,29,22,-8161,-11905,411,-7742,1445,1346,-72,316,691,-66
197,44,94,216,64,41,36,24,26,-8114,-11879,304,-7838,1462,1362,-78,425,739,-71
212,44,87,216,60,38,36,25,26,-8058,-11854,184,-7936,1456,1381,-75,492,779,-83
235,35,85,174,54,34,33,21,25,-8002,-11827,53,-8034,1457,1409,-69,520,824,-121
257,42,79,156,51,34,31,26,27,-7949,-11795,-86,-8133,1452,1401,-77,507,866,-158
272,37,83,160,51,30,29,23,31,-7901,-11758,-226,-8229,1453,1428,-67,480,871,-182
295,40,80,184,52,28,29,22,34,-7862,-11712,-365,-8327,1463,1445,-67,406,903,-195
317,43,94,201,52,30,34,20,34,-7826,-11658,-505,-8429,1399,1458,-29,387,945,-176
332,43,110,192,51,33,35,23,34,-7786,-11603,-646,-8531,1391,1423,-31,392,955,-181
355,38,125,189,50,38,35,23,34,-7743,-11543,-800,-8638,1407,1409,-74,403,1048,-229
377,39,146,199,52,40,37,26,31,-7701,-11483,-977,-8737,1344,1420,-79,461,1085,-324
392,35,151,204,52,45,42,28,25,-7658,-11430,-1161,-8822,1262,1405,-70,511,1024,-358
415,30,139,191,63,51,57,35,28,-7616,-11389,-1339,-8886,1248,1412,-97,511,905,-398
437,32,131,230,72,53,57,36,33,-7580,-11361,-1500,-8927,1218,1450,-104,481,733,-383
452,29,129,265,85,64,67,37,33,-7545,-11347,-1634,-8951,1195,1458,-79,444,540,-315
475,28,104,266,86,68,70,37,32,-7514,-11343,-1738,-8961,1229,1466,-72,378,378,-262
497,32,103,255,87,65,69,37,33,-7487,-11344,-1824,-8966,1221,1473,-77,324,289,-208
512,32,106,254,82,62,54,35,31,-7460,-11346,-1896,-8971,1206,1481,-44,296,237,-157
535,30,102,219,80,66,59,35,26,-7437,-11347,-1953,-8977,1198,1466,-20,242,198,-109
557,28,133,250,75,56,47,36,26,-7413,-11346,-1994,-8989,1186,1462,20,212,168,-29
572,27,158,281,84,51,42,33,26,-7384,-11347,-2036,-9003,1181,1433,10,229,180,-22
596,21,166,292,97,53,37,33,25,-7353,-11344,-2083,-9021,1211,1466,16,242,219,-29
618,25,198,318,107,63,44,30,27,-7316,-11343,-2142,-9038,1182,1502,37,317,234,-34
632,24,195,316,102,56,39,28,28,-7266,-11348,-2210,-9055,1201,1531,42,418,240,-22
655,23,172,268,98,56,39,23,29,-7222,-11352,-2282,-9068,1234,1560,8,398,247,-73
677,23,149,230,91,54,38,26,32,-7180,-11357,-2360,-9074,1248,1604,-24,404,241,-119
692,25,134,219,83,59,48,28,32,-7146,-11358,-2445,-9078,1235,1614,-56,377,262,-166
715,20,106,249,73,57,46,29,30,-7120,-11350,-2526,-9086,1293,1632,-77,298,296,-206
738,21,134,313,89,65,52,29,30,-7114,-11329,-2611,-9093,1303,1659,-26,225,308,-291
760,23,139,366,102,73,57,32,29,-7132,-11304,-2708,-9083,1154,1614,-19,177,263,-426
775,22,164,377,104,85,63,31,31,-7155,-11271,-2791,-9079,1157,1567,-16,88,269,-407
797,28,173,383,119,89,59,31,32,-7165,-11235,-2837,-9103,1129,1544,22,5,299,-160
820,30,172,398,129,90,57,36,33,-7160,-11200,-2862,-9142,1079,1503,98,13,293,17
834,30,169,400,132,89,53,39,31,-7131,-11165,-2905,-9193,1053,1440,99,145,407,45
857,30,170,393,132,90,57,45,34,-7072,-11132,-2988,-9253,1035,1453,81,369,570,13
880,28,148,391,136,83,52,45,31,-6994,-11100,-3088,-9317,1034,1521,75,499,649,47
894,24,154,398,135,78,50,43,32,-6895,-11081,-3189,-9379,1050,1556,31,587,629,124
917,21,153,365,131,74,50,42,31,-6794,-11072,-3284,-9430,1185,1627,-77,572,586,107
940,27,139,314,117,73,48,39,30,-6713,-11058,-3377,-9472,1237,1668,-129,465,561,15
955,26,155,275,107,63,37,30,28,-6652,-11045,-3463,-9499,1243,1681,-215,352,484,-61
978,30,168,324,112,62,38,33,25,-6606,-11043,-3522,-9512,1168,1659,-218,253,315,3
1000,28,158,308,96,62,36,32,21,-6556,-11064,-3544,-9514,1143,1665,-236,205,122,170
1015,38,165,315,95,58,40,28,28,-6511,-11107,-3521,-9503,1177,1635,-231,118,-107,303
1037,39,171,330,109,61,52,32,29,-6478,-11160,-3473,-9481,1185,1669,-208,37,-267,364
1060,44,154,360,124,69,62,39,32,-6452,-11211,-3412,-9461,1284,1740,-152,-4,-308,384
1075,44,145,343,125,66,61,35,33,-6437,-11258,-3354,-9436,1334,1723,-116,-24,-339,294
1097,46,148,360,128,67,62,35,35,-6443,-11291,-3305,-9411,1305,1683,-15,-55,-335,184
1119,44,123,329,119,67,59,35,29,-6462,-11309,-3267,-9389,1234,1631,8,-98,-273,101
1134,40,122,323,109,57,48,31,28,-6483,-11315,-3240,-9377,1192,1555,31,-104,-182,51
1157,36,148,297,85,51,34,23,29,-6502,-11318,-3220,-9366,1193,1485,40,-74,-150,5
1179,34,149,270,76,53,49,26,29,-6513,-11323,-3212,-9356,1142,1454,12,-20,-113,-1
1194,31,144,248,81,52,53,28,27,-6517,-11325,-3200,-9354,1164,1444,-25,-27,-55,41
1217,25,164,308,94,55,54,28,27,-6506,-11329,-3187,-9362,1177,1450,-64,-3,4,116
1239,24,160,304,95,58,56,30,31,-6483,-11330,-3169,-9382,1205,1473,-41,17,46,195
1256,22,124,294,98,59,54,29,27,-6451,-11328,-3144,-9414,1269,1523,-47,11,109,274
1277,20,123,322,107,59,40,25,26,-6414,-11327,-3123,-9448,1304,1570,-66,33,126,285
1300,19,123,319,98,55,34,22,27,-6378,-11323,-3108,-9482,1336,1590,-77,39,162,262
1314,17,95,260,89,50,35,23,29,-6349,-11318,-3105,-9509,1348,1593,-95,42,156,169
1337,19,95,248,89,59,34,19,32,-6328,-11315,-3114,-9524,1340,1566,-134,53,138,73
1360,24,101,261,93,55,34,25,35,-6311,-11313,-3123,-9534,1357,1542,-141,47,116,37
1375,24,89,207,76,53,33,25,33,-6296,-11316,-3126,-9539,1374,1522,-154,29,64,31
1397,30,85,211,76,53,33,26,32,-6283,-11327,-3122,-9536,1339,1510,-175,12,2,57
1420,31,90,229,82,53,30,24,31,-6273,-11342,-3105,-9531,1273,1481,-158,-22,-59,115
1435,30,94,239,81,42,31,25,26,-6267,-11355,-3074,-9529,1256,1482,-138,-75,-80,173
1457,26,90,191,75,37,31,19,22,-6262,-11371,-3038,-9525,1266,1488,-125,-86,-115,189
1479,27,94,203,83,44,32,24,24,-6261,-11385,-3002,-9520,1279,1490,-82,-85,-139,165
1495,18,110,209,92,52,35,23,23,-6263,-11398,-2968,-9514,1288,1471,-75,-84,-138,145
1517,18,104,220,83,49,35,23,21,-6264,-11406,-2940,-9512,1329,1461,-61,-78,-99,106
1539,18,94,230,101,58,39,24,23,-6266,-11407,-2922,-9515,1340,1473,-55,-61,-34,75
1554,18,91,242,98,59,42,24,22,-6266,-11404,-2913,-9522,1356,1480,-61,-42,19,41
1577,19,86,237,93,60,44,24,27,-6263,-11399,-2911,-9531,1358,1500,-72,-18,50,36
1599,20,75,227,86,58,44,25,30,-6259,-11394,-2909,-9539,1347,1505,-70,-14,51,45
1614,23,77,205,89,62,45,28,32,-6257,-11392,-2911,-9543,1366,1531,-112,-15,43,20
1637,25,85,181,73,56,38,26,32,-6258,-11390,-2913,-9544,1368,1538,-93,-17,26,2
1659,27,112,203,86,61,40,29,34,-6266,-11389,-2916,-9539,1316,1526,-95,-30,-1,-20
1682,31,123,213,90,63,41,29,30,-6273,-11390,-2917,-9533,1318,1512,-85,-30,-22,-16
1697,30,117,255,91,61,39,28,28,-6282,-11391,-2916,-9526,1337,1494,-78,-31,-38,-31
1720,27,113,265,99,56,35,28,27,-6290,-11394,-2917,-9516,1310,1477,-64,-18,-54,-38
1742,31,160,324,132,59,39,28,23,-6300,-11399,-2914,-9504,1293,1454,-73,-29,-74,-35
1757,35,156,318,133,65,38,28,21,-6310,-11404,-2911,-9493,1268,1457,-54,-22,-80,-17
1780,34,150,315,132,60,35,24,27,-6316,-11408,-2904,-9487,1314,1455,-57,-30,-60,-5
1802,35,153,307,136,57,34,24,28,-6323,-11409,-2897,-9483,1315,1476,-50,-41,-48,5
1817,35,156,308,131,57,36,22,30,-6327,-11409,-2890,-9483,1312,1477,-48,-30,-21,22
1840,33,115,260,105,60,37,22,31,-6329,-11408,-2883,-9485,1314,1477,-48,-29,-13,34
1862,30,103,263,107,56,40,19,32,-6330,-11407,-2877,-9487,1305,1485,-41,-19,-9,40
1877,26,105,272,113,56,39,20,27,-6329,-11403,-2876,-9492,1334,1493,-56,-14,27,20
1899,25,101,237,103,56,38,23,26,-6330,-11398,-2878,-9497,1337,1516,-57,-8,37,8
1922,26,120,348,144,68,46,26,25,-6330,-11395,-2886,-9498,1324,1497,-89,3,40,-17
1937,27,116,364,148,72,55,29,26,-6334,-11390,-2892,-9500,1324,1498,-60,-11,34,-26
1960,25,115,352,146,66,50,28,24,-6336,-11387,-2896,-9501,1319,1494,-85,-11,32,-13
1982,27,128,398,157,70,57,30,22,-6337,-11386,-2896,-9501,1309,1474,-76,-17,7,3
1997,28,131,433,164,73,60,32,26,-6336,-11386,-2895,-9503,1305,1469,-71,-4,15,18
2019,27,108,333,129,62,54,30,25,-6334,-11385,-2896,-9505,1317,1477,-69,1,16,12
2042,23,117,320,126,49,42,26,22,-6331,-11385,-2899,-9506,1309,1468,-72,11,22,8
2057,22,151,379,141,57,46,26,22,-6329,-11385,-2898,-9508,1293,1452,-65,3,7,21
2079,18,147,334,131,51,37,24,22,-6319,-11383,-2897,-9517,1322,1460,-48,21,47,54
2102,19,143,289,125,53,35,26,18,-6309,-11382,-2899,-9524,1322,1478,-74,29,52,40
2117,20,153,308,126,54,35,25,23,-6301,-11379,-2903,-9531,1326,1498,-71,24,60,41
2139,21,161,326,140,69,37,25,24,-6294,-11380,-2906,-9535,1328,1500,-86,22,38,35
2162,24,142,279,126,64,37,27,23,-6289,-11376,-2908,-9541,1360,1516,-50,13,40,25
2177,27,133,262,117,72,39,28,25,-6288,-11373,-2916,-9544,1376,1546,-103,-1,58,-15
2208,26,141,272,120,74,40,24,27,-6296,-11366,-2926,-9543,1347,1545,-81,-17,42,-53
2222,28,138,261,120,77,40,26,26,-6306,-11360,-2934,-9542,1317,1498,-91,-41,37,-59
2237,27,113,210,93,65,40,27,28,-6319,-11355,-2938,-9537,1296,1482,-53,-49,-6,-58
2259,25,110,238,103,69,37,28,32,-6329,-11350,-2941,-9536,1316,1468,-50,-42,10,-50
2282,23,115,283,117,65,43,29,31,-6338,-11342,-2946,-9538,1300,1444,-36,-33,32,-58
2297,24,109,292,119,67,45,30,31,-6342,-11333,-2950,-9545,1307,1449,-36,-27,57,-28
2319,21,110,293,118,62,48,32,28,-6344,-11325,-2954,-9552,1278,1447,-15,-9,50,-6
2342,21,107,302,120,69,47,31,25,-6341,-11319,-2958,-9559,1294,1452,-35,7,56,9
2357,22,112,258,108,66,48,30,23,-6336,-11312,-2961,-9570,1321,1482,-37,2,76,19
2379,22,112,220,101,71,47,31,23,-6333,-11304,-2964,-9581,1323,1481,-32,-1,75,14
2402,21,110,189,99,79,47,33,21,-6330,-11297,-2971,-9589,1338,1470,-63,-4,88,-15
2417,22,100,180,104,82,49,33,25,-6326,-11288,-2984,-9598,1338,1519,-61,16,101,-18
2439,20,117,217,99,79,49,34,24,-6325,-11282,-2994,-9603,1309,1513,-57,9,74,-12
2462,22,130,217,100,85,51,34,24,-6326,-11277,-2999,-9607,1313,1488,-35,-8,39,-13
2477,25,127,227,96,84,48,31,23,-6329,-11271,-3004,-9610,1336,1498,-37,-12,45,-29
2499,27,132,243,102,74,49,31,24,-6334,-11265,-3016,-9610,1327,1507,-44,1,46,-65
2522,27,136,237,95,82,50,27,21,-6340,-11260,-3028,-9608,1308,1501,-34,0,30,-66
2537,31,141,244,102,84,53,28,25,-6348,-11254,-3039,-9606,1289,1474,-23,-6,26,-74
2559,37,123,259,104,75,49,27,32,-6353,-11249,-3052,-9606,1310,1497,-17,18,37,-71
2582,42,168,290,102,68,47,26,35,-6358,-11244,-3076,-9601,1335,1553,-12,57,37,-113
2597,63,193,301,93,63,41,25,41,-6362,-11238,-3113,-9592,1371,1644,-5,112,57,-160
2619,76,219,318,92,46,33,28,41,-6368,-11241,-3171,-9565,1372,1755,-33,203,4,-244
2642,86,245,315,87,34,26,27,40,-6389,-11257,-3238,-9510,1349,1748,-74,222,-133,-376
2664,140,249,341,85,37,31,27,40,-6433,-11277,-3307,-9433,1264,1765,-119,160,-236,-475
2679,158,255,365,84,48,39,33,42,-6501,-11296,-3372,-9340,1229,1790,-136,74,-335,-568
2702,161,260,381,103,60,52,34,43,-6580,-11311,-3445,-9239,1264,1718,-73,80,-373,-716
2724,172,264,372,108,61,53,34,46,-6672,-11314,-3527,-9138,1193,1699,-77,39,-330,-800
2739,188,243,356,106,66,58,37,51,-6773,-11316,-3612,-9027,1113,1665,-135,1,-351,-861
2762,169,240,318,94,63,55,38,48,-6885,-11303,-3705,-8920,1017,1583,-126,-52,-287,-945
2784,159,213,231,90,61,52,34,46,-7010,-11284,-3795,-8808,888,1597,-163,-141,-303,-949
2799,174,183,159,59,47,39,31,43,-7127,-11274,-3854,-8701,841,1455,-144,-179,-375,-817
2822,165,148,147,45,49,47,35,45,-7223,-11282,-3871,-8604,815,1377,-148,-196,-470,-574
2844,149,137,93,37,41,41,30,37,-7297,-11316,-3840,-8510,844,1355,-160,-200,-621,-303
2859,130,125,107,39,42,40,29,38,-7344,-11381,-3750,-8423,945,1325,-181,-198,-795,2
2882,134,115,110,35,34,38,30,37,-7368,-11474,-3611,-8335,1102,1409,-218,-187,-978,251
2904,145,120,124,38,37,43,31,40,-7374,-11585,-3438,-8250,1203,1504,-375,-234,-1043,452
2919,152,112,125,35,31,33,25,38,-7377,-11692,-3243,-8175,1215,1595,-407,-305,-1039,606
2942,171,120,130,35,35,38,30,42,-7379,-11798,-3030,-8102,1265,1683,-450,-367,-1068,705
2964,174,121,104,35,33,50,31,44,-7379,-11894,-2806,-8042,1285,1711,-356,-367,-1040,796
2979,188,118,101,34,34,53,31,48,-7380,-11984,-2576,-7984,1302,1674,-293,-376,-1063,813
3002,174,118,79,29,37,55,33,48,-7399,-12059,-2350,-7923,1289,1628,-269,-455,-1041,741
3024,163,117,68,27,37,58,34,50,-7414,-12129,-2134,-7863,1256,1561,-205,-400,-1017,707
3039,145,103,64,27,34,59,35,47,-7422,-12204,-1930,-7793,1254,1541,-234,-324,-1034,672
3062,173,108,63,25,34,58,37,46,-7441,-12266,-1746,-7720,1399,1643,-280,-356,-961,517
3084,162,156,80,29,40,64,42,53,-7478,-12305,-1590,-7656,1436,1696,-255,-398,-823,376
3099,177,165,82,35,55,89,82,57,-7513,-12332,-1449,-7606,1347,1560,-247,-402,-686,347
3122,188,179,105,41,67,95,111,69,-7556,-12358,-1301,-7548,1185,1442,-312,-481,-705,369
3144,242,210,141,42,74,114,122,78,-7617,-12378,-1145,-7477,1122,1335,-361,-616,-752,310
3159,259,222,144,42,80,116,133,82,-7691,-12404,-994,-7380,1121,1379,-404,-645,-855,210
3182,277,201,138,43,81,115,154,81,-7749,-12456,-830,-7252,1181,1350,-445,-546,-1076,194
3204,282,271,166,37,78,102,149,89,-7796,-12515,-632,-7117,1252,1304,-407,-546,-1236,308
3219,277,275,156,33,71,123,136,80,-7837,-12581,-423,-6971,1240,1311,-352,-491,-1350,358
3242,233,291,171,37,73,112,144,74,-7872,-12641,-235,-6829,1358,1358,-269,-383,-1313,261
3264,219,284,179,44,82,139,192,117,-7894,-12685,-96,-6725,1524,1464,-191,-210,-1025,153
3279,198,279,180,43,87,152,195,119,-7916,-12702,11,-6668,1488,1490,-199,-208,-676,164
3303,191,234,177,44,81,155,203,114,-7949,-12707,109,-6617,1329,1514,-343,-328,-526,197
3324,189,229,184,51,88,158,227,119,-7995,-12703,212,-6567,1308,1521,-351,-420,-510,201
3339,195,205,200,56,86,179,263,135,-8032,-12701,307,-6523,1333,1412,-365,-374,-464,157
3362,182,243,255,53,76,170,234,108,-8059,-12696,398,-6495,1331,1276,-458,-380,-348,163
3384,179,251,256,53,71,178,225,102,-8078,-12697,507,-6461,1276,1328,-511,-387,-408,285
3399,166,240,263,69,85,221,312,112,-8106,-12692,637,-6424,1363,1469,-454,-447,-497,371
3422,172,283,261,74,91,270,386,129,-8138,-12675,765,-6403,1393,1418,-446,-495,-395,374
3444,189,263,232,83,116,329,460,150,-8172,-12652,886,-6389,1344,1389,-482,-518,-311,382
3459,176,257,217,95,136,377,490,167,-8214,-12623,1007,-6375,1361,1380,-461,-568,-306,360
3482,184,277,252,104,142,378,499,178,-8262,-12598,1137,-6340,1348,1325,-473,-624,-409,315
3504,216,336,242,105,150,385,513,203,-8320,-12569,1282,-6294,1389,1337,-303,-639,-559,319
3519,270,324,256,103,163,370,473,250,-8368,-12532,1410,-6277,1528,1472,-72,-477,-464,365
3542,254,326,253,96,158,337,482,265,-8392,-12498,1478,-6296,1553,1625,-127,-222,-139,304
3564,263,339,233,84,143,298,463,264,-8419,-12469,1503,-6313,1448,1565,-237,-187,27,135
3587,271,351,245,85,149,299,461,268,-8448,-12439,1531,-6327,1415,1429,-297,-244,37,92
3602,252,305,270,87,144,281,427,263,-8469,-12411,1571,-6342,1499,1444,-289,-229,-9,144
3624,214,336,285,89,124,270,436,235,-8475,-12384,1571,-6389,1482,1414,-274,-61,230,98
3647,225,347,287,90,116,245,345,228,-8465,-12369,1531,-6440,1424,1427,-338,106,363,-3
3662,226,313,271,87,111,223,331,213,-8457,-12361,1504,-6473,1401,1365,-395,50,262,-23
3684,203,282,222,77,94,212,332,206,-8457,-12351,1506,-6491,1467,1373,-359,-44,105,16
3707,237,312,215,60,78,180,277,188,-8459,-12345,1512,-6498,1396,1428,-392,-74,60,50
3722,224,271,190,53,82,181,239,181,-8475,-12327,1518,-6510,1399,1430,-331,-133,93,34
3753,239,319,226,52,79,180,215,181,-8483,-12320,1510,-6514,1371,1419,-388,-71,93,-26
3767,232,336,240,54,86,176,206,182,-8506,-12309,1509,-6505,1393,1429,-285,-124,1,-72
3782,232,335,258,56,87,185,206,178,-8527,-12296,1494,-6506,1418,1433,-284,-94,81,-109
3804,210,421,269,60,106,215,260,189,-8543,-12284,1467,-6513,1367,1402,-301,-48,153,-126
3827,223,506,316,60,123,231,268,168,-8558,-12271,1448,-6523,1343,1355,-259,-53,127,-92
3842,202,489,300,63,136,247,274,144,-8569,-12262,1450,-6526,1335,1294,-269,-87,32,-35
3864,261,507,353,69,136,255,327,184,-8582,-12247,1469,-6531,1383,1277,-272,-146,9,16
3887,315,555,362,72,141,247,332,239,-8602,-12216,1482,-6560,1395,1237,-73,-134,91,34
3902,300,487,339,71,135,229,309,237,-8592,-12201,1470,-6604,1434,1385,-241,46,241,82
3924,282,385,295,70,121,182,289,232,-8574,-12200,1449,-6634,1446,1557,-382,92,224,75
3947,304,432,342,62,116,141,262,220,-8584,-12184,1440,-6653,1455,1445,-210,-42,129,-10
3962,283,437,289,60,135,175,205,218,-8579,-12168,1414,-6694,1483,1420,-119,101,232,-1
3984,224,422,269,57,137,172,190,175,-8552,-12169,1371,-6735,1361,1377,-455,147,368,1
4007,240,439,265,52,128,167,151,161,-8526,-12174,1346,-6763,1407,1348,-395,122,224,6
4022,246,466,261,56,128,171,145,162,-8504,-12178,1332,-6788,1449,1427,-347,106,163,53
4044,235,431,184,59,130,184,167,180,-8493,-12165,1307,-6829,1517,1393,-139,120,225,-1
4067,214,411,218,61,122,154,158,156,-8467,-12162,1266,-6874,1384,1308,-334,166,343,-8
4082,307,444,273,70,136,162,138,147,-8432,-12164,1239,-6919,1496,1395,-274,216,257,63
4104,317,404,303,76,148,154,142,168,-8399,-12166,1211,-6960,1458,1425,-326,192,271,72
4127,326,368,302,72,147,144,137,168,-8374,-12169,1181,-6989,1454,1426,-329,156,222,13
4142,328,353,312,73,136,120,126,163,-8355,-12166,1154,-7023,1570,1436,-225,150,209,-11
4164,314,340,282,69,132,125,132,156,-8322,-12180,1111,-7043,1517,1556,-411,229,222,-24
4187,235,258,235,65,116,116,130,141,-8305,-12199,1089,-7035,1385,1403,-412,107,48,-69
4202,208,255,197,61,103,116,121,123,-8316,-12193,1099,-7031,1413,1235,-163,-72,-55,-53
4224,192,264,195,62,95,117,127,122,-8301,-12197,1099,-7042,1484,1420,-267,65,40,48
4247,153,230,168,56,89,118,110,96,-8294,-12197,1085,-7052,1499,1567,-270,67,83,24
4262,150,217,147,52,72,85,87,83,-8279,-12201,1047,-7069,1530,1580,-162,206,128,-47
4284,122,157,118,40,65,71,74,78,-8253,-12207,977,-7099,1564,1635,-66,387,225,-112
4307,88,146,92,33,58,68,66,54,-8218,-12209,886,-7147,1536,1544,-73,457,366,-157
4322,68,124,68,30,55,63,53,45,-8190,-12205,792,-7197,1397,1417,-120,395,434,-172
4344,103,130,67,27,52,56,41,40,-8156,-12203,707,-7248,1404,1364,-216,360,439,-146
4367,106,141,75,25,45,50,30,30,-8114,-12210,629,-7290,1468,1463,-241,398,368,-111
4382,109,149,76,28,33,47,26,32,-8075,-12214,550,-7333,1472,1513,-200,394,363,-100
4404,111,151,84,36,28,38,26,32,-8045,-12209,466,-7380,1421,1461,-115,377,390,-135
4427,127,155,105,34,33,37,27,34,-8013,-12198,369,-7438,1398,1376,-89,404,479,-182
4442,91,157,102,34,35,33,23,30,-7977,-12183,251,-7506,1366,1316,-84,459,592,-239
4464,83,126,96,37,36,32,21,28,-7936,-12166,116,-7580,1407,1273,-87,512,672,-318
4487,75,126,97,36,37,35,22,27,-7897,-12142,-33,-7660,1415,1256,-89,521,756,-383
4509,72,120,94,29,41,32,23,26,-7857,-12112,-186,-7747,1394,1211,-110,501,818,-391
4524,37,116,70,30,36,28,22,24,-7808,-12080,-337,-7840,1403,1229,-200,487,886,-340
4547,30,107,65,34,39,29,27,24,-7753,-12044,-478,-7942,1400,1305,-225,468,922,-232
4569,37,113,88,39,45,30,27,26,-7691,-12002,-604,-8056,1397,1311,-281,409,971,-119
4584,38,102,100,47,56,31,28,29,-7628,-11954,-721,-8177,1355,1339,-279,370,1005,-27
4607,34,95,101,51,54,31,28,30,-7558,-11910,-829,-8295,1344,1392,-315,365,971,46
4629,33,85,103,50,58,34,26,29,-7496,-11870,-925,-8399,1303,1428,-321,307,887,67
4644,36,87,103,61,73,42,21,30,-7445,-11833,-1008,-8485,1306,1449,-319,237,766,59
4668,29,87,98,72,82,53,25,32,-7352,-11766,-1131,-8643,1330,1429,-251,175,634,129
4689,27,82,89,76,85,56,27,29,-7305,-11738,-1166,-8716,1332,1423,-234,129,549,194
4712,34,88,103,80,118,81,36,29,-7263,-11710,-1189,-8785,1327,1441,-162,103,468,231
4728,41,95,124,121,229,120,54,35,-7215,-11676,-1198,-8869,1365,1451,-105,79,503,338
5,Repeat 4,,,,,,,,,,,,,,,,,
35,46,100,141,173,280,135,60,35,-7127,-11610,-1221,-9022,1390,1533,-7,104,463,295
44,55,120,176,236,301,182,86,46,-7084,-11569,-1245,-9105,1457,1502,60,144,505,259
65,54,114,180,265,373,187,89,46,-7035,-11531,-1296,-9183,1482,1500,34,239,552,155
87,54,124,198,258,349,174,84,43,-6994,-11482,-1377,-9264,1437,1468,84,294,652,16
104,53,117,195,253,349,180,85,42,-6958,-11426,-1474,-9345,1427,1464,83,295,719,-67
125,52,126,198,236,408,190,87,43,-6923,-11365,-1588,-9426,1451,1466,37,313,801,-153
147,45,110,167,195,449,158,70,31,-6903,-11300,-1709,-9497,1418,1436,6,261,800,-255
164,56,114,172,177,393,176,82,38,-6890,-11243,-1819,-9554,1377,1446,-37,197,708,-254
185,63,100,169,229,407,237,108,62,-6887,-11193,-1914,-9596,1276,1431,-56,125,602,-234
207,65,117,183,246,404,238,110,64,-6880,-11159,-1987,-9626,1266,1418,-25,120,437,-161
224,60,108,178,245,334,226,107,63,-6883,-11131,-2044,-9644,1272,1408,50,85,310,-167
245,61,135,225,256,285,226,106,66,-6883,-11108,-2097,-9659,1354,1405,45,88,273,-185
267,54,154,237,249,281,203,93,62,-6890,-11074,-2154,-9681,1349,1461,37,39,351,-199
284,43,157,220,210,225,126,62,45,-6902,-11041,-2205,-9699,1317,1435,63,16,302,-197
305,43,158,237,219,225,129,63,45,-6922,-10998,-2255,-9721,1324,1407,91,-42,336,-243
327,51,163,243,234,273,153,74,52,-6935,-10932,-2304,-9775,1421,1507,103,-99,544,-164
344,48,143,214,202,246,142,70,50,-6943,-10850,-2359,-9848,1449,1551,201,-87,662,-137
372,44,122,203,201,237,138,69,49,-6952,-10782,-2422,-9901,1333,1475,186,-24,565,-183
395,41,118,199,179,227,127,63,42,-6958,-10736,-2491,-9929,1217,1488,180,78,414,-201
404,37,100,161,141,189,106,57,38,-6971,-10707,-2566,-9932,1164,1490,164,121,277,-270
425,26,94,196,101,92,55,37,30,-6993,-10699,-2634,-9907,1186,1494,100,119,106,-347
447,26,96,220,110,69,49,36,30,-7025,-10699,-2689,-9870,1257,1501,110,67,-9,-387
464,26,99,230,98,63,49,36,30,-7060,-10676,-2745,-9854,1358,1526,113,-13,153,-418
485,29,100,243,102,60,52,39,29,-7106,-10657,-2796,-9827,1327,1558,54,-73,94,-444
507,31,98,263,101,69,53,33,27,-7154,-10645,-2830,-9796,1190,1560,54,-122,6,-339
523,30,108,248,98,72,51,34,26,-7205,-10638,-2832,-9766,1096,1527,107,-204,-107,-206
545,31,154,255,103,78,57,39,24,-7251,-10624,-2822,-9750,1057,1487,176,-224,-81,-118
567,31,183,294,108,80,55,36,24,-7276,-10623,-2813,-9735,1041,1434,236,-91,-120,-46
590,27,207,299,106,81,52,35,23,-7297,-10626,-2812,-9716,1068,1478,253,-22,-132,-71
605,27,207,288,102,80,59,39,32,-7315,-10630,-2820,-9695,1177,1525,272,26,-111,-127
627,60,210,309,117,111,76,47,32,-7323,-10627,-2843,-9686,1178,1520,277,81,-3,-134
644,64,191,309,120,137,79,48,34,-7322,-10621,-2877,-9684,1129,1517,235,125,77,-108
665,67,160,271,110,139,80,48,33,-7320,-10612,-2915,-9684,1141,1537,170,101,131,-127
687,66,127,266,106,143,83,51,35,-7325,-10598,-2956,-9682,1099,1532,173,76,138,-154
704,65,132,277,107,140,74,47,27,-7333,-10587,-2996,-9676,1136,1572,146,58,120,-172
725,38,113,237,88,115,63,43,24,-7343,-10586,-3026,-9660,1104,1569,119,49,30,-156
747,28,90,208,67,73,53,34,23,-7348,-10600,-3038,-9638,1085,1563,136,58,-88,-65
764,20,103,273,99,72,55,32,23,-7346,-10621,-3042,-9615,1094,1558,135,78,-131,-14
785,27,112,285,101,67,55,28,23,-7339,-10643,-3041,-9596,1122,1609,130,75,-132,34
807,27,121,304,114,68,55,29,25,-7335,-10665,-3040,-9575,1093,1604,118,65,-132,35
824,28,123,320,123,74,52,27,26,-7329,-10689,-3045,-9552,1101,1605,137,113,-142,5
845,29,118,319,120,76,50,27,28,-7333,-10709,-3056,-9523,1142,1657,115,82,-138,-70
867,27,115,262,99,78,48,28,27,-7348,-10727,-3071,-9486,1171,1685,84,47,-153,-147
884,22,127,246,106,77,55,35,27,-7366,-10750,-3081,-9441,1088,1640,95,53,-223,-139
905,22,119,198,101,84,59,39,26,-7385,-10786,-3083,-9386,1034,1587,88,69,-328,-117
927,20,119,223,105,78,57,37,25,-7404,-10820,-3072,-9334,1014,1573,117,34,-353,-64
944,24,134,236,113,85,59,37,22,-7414,-10856,-3051,-9292,1063,1569,112,35,-340,5
966,28,133,229,131,91,61,39,25,-7416,-10890,-3029,-9258,1047,1564,171,81,-322,59
987,26,113,247,131,94,52,35,23,-7408,-10919,-3005,-9237,1109,1584,142,73,-240,107
1004,26,107,293,132,87,46,31,25,-7401,-10942,-2986,-9222,1160,1603,117,55,-180,78
1025,26,113,268,129,90,48,30,26,-7392,-10956,-2974,-9216,1156,1585,113,53,-101,72
1047,21,103,263,145,85,51,33,25,-7381,-10965,-2972,-9215,1159,1606,81,61,-29,59
1064,17,115,259,126,75,49,29,26,-7362,-10973,-2966,-9223,1147,1615,38,47,21,123
1085,18,110,232,120,69,46,26,28,-7348,-10985,-2953,-9224,1160,1659,35,21,-39,139
1107,21,111,184,110,66,45,28,28,-7338,-10995,-2935,-9226,1182,1689,37,-11,-53,142
1124,24,110,199,122,81,47,29,29,-7336,-11010,-2916,-9215,1117,1675,61,-10,-133,125
1145,29,122,253,109,80,47,27,30,-7332,-11028,-2897,-9203,1114,1628,75,17,-154,114
1167,30,142,325,117,92,49,28,26,-7328,-11044,-2877,-9194,1136,1594,106,23,-144,106
1184,30,161,358,129,97,56,33,24,-7318,-11052,-2865,-9195,1180,1559,133,52,-69,84
1205,31,172,368,127,99,62,31,28,-7304,-11057,-2859,-9203,1200,1555,144,75,-15,80
1227,28,171,356,105,83,57,30,26,-7284,-11062,-2861,-9212,1216,1549,115,111,22,64
1244,26,164,328,97,79,54,31,25,-7262,-11073,-2861,-9216,1211,1537,79,124,-4,72
1266,25,131,260,88,65,50,31,25,-7242,-11085,-2859,-9217,1217,1534,41,96,-20,68
1287,28,152,223,79,65,46,28,23,-7222,-11098,-2855,-9220,1219,1572,24,84,-13,89
1304,26,160,225,84,68,43,29,27,-7201,-11105,-2854,-9227,1266,1587,15,75,29,78
1325,27,159,222,93,73,46,28,27,-7183,-11113,-2854,-9232,1269,1612,-39,47,39,63
1348,26,156,235,95,79,52,29,27,-7169,-11119,-2853,-9236,1255,1603,-49,22,34,63
1364,27,161,248,97,78,52,33,28,-7159,-11124,-2849,-9238,1230,1609,-59,-6,24,62
1385,26,119,240,99,69,51,32,28,-7153,-11131,-2842,-9237,1207,1580,-10,-1,-23,63
1407,26,88,248,99,69,51,34,24,-7144,-11138,-2833,-9238,1204,1550,-9,7,-19,73
1424,25,88,251,94,76,54,36,24,-7135,-11148,-2824,-9236,1228,1565,-26,7,-38,68
1445,25,88,213,88,81,47,37,24,-7132,-11157,-2818,-9229,1239,1574,-17,2,-50,23
1467,21,83,183,90,87,46,33,24,-7130,-11167,-2815,-9220,1223,1580,-7,18,-61,8
1484,23,113,230,115,99,49,35,30,-7133,-11175,-2810,-9209,1230,1573,18,-1,-84,-5
1505,22,115,201,112,109,53,38,29,-7139,-11183,-2805,-9196,1194,1571,52,9,-105,-7
1527,24,112,207,111,117,58,40,31,-7141,-11191,-2800,-9186,1190,1566,80,34,-96,16
1544,24,107,217,123,110,57,36,32,-7137,-11200,-2793,-9180,1205,1552,63,41,-80,34
1566,26,109,223,119,106,58,39,35,-7134,-11205,-2790,-9177,1232,1561,46,31,-46,16
1587,24,81,180,88,95,55,37,32,-7132,-11208,-2797,-9174,1252,1571,19,43,-7,-31
1604,25,85,213,94,88,55,36,31,-7132,-11211,-2813,-9166,1229,1584,7,64,0,-73
1625,24,84,223,111,65,50,35,28,-7131,-11211,-2830,-9161,1220,1570,20,67,18,-74
1648,23,88,224,111,70,51,34,27,-7129,-11211,-2844,-9158,1251,1586,-28,40,39,-61
1670,21,92,235,114,65,56,34,29,-7131,-11209,-2860,-9154,1253,1596,-41,21,40,-86
1686,20,116,265,117,94,59,34,27,-7132,-11207,-2880,-9149,1250,1593,-39,35,53,-108
1707,18,123,236,115,87,56,30,26,-7134,-11206,-2904,-9141,1213,1588,-81,36,53,-115
1730,18,123,216,99,86,51,24,26,-7142,-11207,-2921,-9128,1163,1563,-88,0,9,-109
1746,22,126,208,86,83,51,25,28,-7151,-11213,-2931,-9111,1134,1537,-75,-8,-41,-85
1767,22,118,196,81,82,44,20,22,-7163,-11221,-2934,-9091,1137,1538,-57,-14,-91,-80
1790,22,90,167,84,53,41,18,23,-7174,-11233,-2926,-9070,1137,1543,-14,-19,-146,-31
1806,25,98,214,95,52,38,20,25,-7178,-11244,-2906,-9060,1178,1535,34,-24,-142,46
1827,26,122,233,98,78,43,22,26,-7175,-11256,-2884,-9054,1215,1569,60,7,-132,79
1850,23,127,250,92,75,39,24,26,-7167,-11260,-2874,-9058,1238,1601,28,25,-29,67
1867,24,127,261,91,74,37,25,26,-7163,-11258,-2875,-9064,1232,1603,12,18,27,17
1887,23,128,255,86,73,35,25,25,-7160,-11253,-2889,-9068,1186,1602,-21,32,68,-23
1910,19,110,215,72,71,36,25,26,-7158,-11250,-2905,-9068,1170,1588,-55,35,65,-40
1926,17,82,207,80,74,41,25,23,-7153,-11251,-2919,-9066,1160,1578,-70,35,51,-28
1947,19,67,191,86,85,48,24,22,-7149,-11249,-2927,-9069,1197,1586,-84,7,63,-11
1977,20,65,172,90,90,50,24,22,-7149,-11249,-2933,-9067,1190,1595,-86,-13,30,-17
1986,21,59,161,94,90,51,24,24,-7148,-11248,-2936,-9068,1198,1579,-74,-18,37,-10
2007,23,62,160,101,93,54,24,23,-7150,-11246,-2936,-9069,1178,1591,-59,-31,18,2
2030,23,66,146,91,69,48,24,25,-7151,-11245,-2933,-9070,1209,1607,-40,-32,11,13
2046,22,68,159,96,69,43,23,25,-7156,-11242,-2930,-9072,1231,1619,-18,-39,7,-2
2067,20,67,175,100,68,45,27,29,-7162,-11239,-2931,-9069,1231,1623,-19,-30,-7,-35
2090,21,72,190,96,64,45,27,28,-7171,-11239,-2937,-9061,1201,1623,-30,-15,-17,-59
2106,20,73,195,103,68,42,27,27,-7181,-11241,-2942,-9049,1178,1594,-26,-15,-50,-74
2127,21,66,186,111,75,48,26,27,-7192,-11242,-2940,-9039,1185,1579,-14,-36,-56,-48
2150,23,72,173,107,64,48,30,26,-7202,-11240,-2938,-9034,1192,1577,-14,-44,-26,-43
2166,23,83,173,107,66,50,28,23,-7208,-11239,-2939,-9031,1192,1573,-43,-33,-4,-43
2187,22,80,157,106,72,48,29,23,-7215,-11236,-2943,-9028,1167,1570,-26,-27,2,-42
2210,22,81,145,101,87,54,32,26,-7220,-11234,-2947,-9025,1175,1567,-22,-15,6,-50
2226,21,78,141,91,89,51,34,26,-7225,-11233,-2956,-9020,1153,1564,-39,-4,11,-55
2247,19,67,130,85,92,53,32,27,-7232,-11232,-2962,-9013,1147,1564,-31,-13,-9,-57
2270,22,57,133,82,98,54,32,29,-7239,-11232,-2961,-9008,1142,1559,-11,-25,-32,-30
2286,21,59,170,88,96,54,32,28,-7244,-11233,-2956,-9004,1150,1576,-23,-33,-29,-1
2307,21,55,178,79,83,47,29,26,-7247,-11231,-2950,-9006,1178,1600,-23,-45,0,21
2330,22,71,184,75,78,47,30,26,-7251,-11227,-2942,-9010,1176,1597,-9,-53,1,24
2346,23,110,198,93,80,48,30,27,-7253,-11222,-2935,-9017,1181,1601,6,-44,23,38
2367,19,121,209,97,69,43,30,24,-7255,-11216,-2932,-9025,1223,1629,2,-39,36,10
2390,21,128,182,90,63,43,28,24,-7259,-11210,-2937,-9026,1216,1624,-14,-20,34,-42
2406,23,131,182,97,75,51,30,23,-7263,-11206,-2951,-9023,1185,1609,1,18,28,-73
2427,24,126,179,97,82,53,31,22,-7265,-11203,-2965,-9022,1167,1584,-7,25,41,-71
2450,24,101,201,83,75,48,28,21,-7266,-11199,-2978,-9022,1135,1578,-7,23,43,-46
2466,24,89,178,84,91,55,29,21,-7265,-11192,-2991,-9026,1160,1602,-15,16,74,-38
2487,23,91,192,94,102,58,29,22,-7265,-11184,-3000,-9033,1145,1596,-6,-2,79,-14
2510,20,88,189,96,114,63,28,29,-7264,-11178,-3005,-9041,1138,1587,-27,-18,71,7
2526,23,96,189,114,147,65,28,28,-7263,-11167,-3007,-9054,1146,1589,6,-32,89,26
2547,22,99,151,144,200,80,34,31,-7258,-11151,-3013,-9076,1178,1596,18,-21,150,26
2570,24,97,168,156,224,78,36,33,-7249,-11129,-3023,-9106,1154,1556,20,-17,215,35
2586,25,82,162,182,270,84,41,34,-7233,-11113,-3035,-9135,1133,1553,-7,12,216,63
2607,27,88,160,182,265,81,41,30,-7216,-11099,-3043,-9162,1157,1604,20,23,186,84
2630,23,86,164,177,260,79,40,33,-7201,-11083,-3054,-9190,1146,1568,14,15,200,68
2652,25,83,176,204,238,93,41,32,-7191,-11066,-3061,-9216,1153,1560,47,-4,177,52
2667,38,83,158,270,263,119,53,36,-7175,-11051,-3069,-9244,1153,1589,63,31,183,84
2690,38,83,134,262,225,121,52,37,-7156,-11034,-3077,-9276,1141,1526,34,16,215,90
2712,38,87,162,304,226,121,52,36,-7140,-11024,-3085,-9297,1182,1600,8,22,159,67
2727,41,91,175,342,234,133,59,41,-7133,-11019,-3093,-9307,1163,1593,8,11,91,28
2750,41,87,170,354,245,122,59,46,-7130,-11013,-3094,-9315,1148,1560,22,-18,62,26
2772,31,93,176,315,217,112,52,45,-7126,-11013,-3085,-9321,1153,1523,13,-41,18,57
2787,32,116,238,316,228,120,53,45,-7120,-11017,-3076,-9324,1177,1541,1,-17,-6,60
2810,32,109,227,281,232,123,54,49,-7116,-11022,-3073,-9323,1191,1559,30,7,-16,21
2832,31,99,220,251,233,119,56,45,-7112,-11026,-3072,-9321,1178,1575,33,19,-11,21
2847,31,108,221,237,235,121,59,43,-7109,-11029,-3069,-9320,1195,1580,46,9,-19,19
2870,35,112,216,229,245,114,54,40,-7106,-11032,-3070,-9319,1191,1589,38,16,-7,13
2892,40,93,148,241,269,133,64,49,-7107,-11036,-3073,-9313,1159,1588,17,12,-20,-2
2907,46,101,166,260,317,166,78,50,-7105,-11040,-3068,-9310,1169,1585,8,-11,-23,29
2930,44,105,184,277,316,166,74,54,-7107,-11044,-3060,-9307,1177,1581,19,-33,-38,32
2952,46,102,185,260,312,164,71,50,-7111,-11050,-3052,-9300,1184,1587,-2,-34,-59,15
2967,44,101,208,275,326,180,81,55,-7118,-11059,-3044,-9286,1186,1584,-8,-39,-92,-11
2990,40,111,249,289,319,155,70,44,-7125,-11065,-3038,-9276,1187,1592,22,-23,-73,-10
3012,33,105,230,284,287,124,59,39,-7129,-11068,-3034,-9270,1192,1588,28,-21,-46,-2
3027,42,103,215,264,325,130,64,42,-7137,-11071,-3024,-9264,1209,1587,63,-36,-70,-4
3050,43,105,223,274,334,139,70,45,-7142,-11071,-3021,-9262,1216,1603,50,-25,-28,-10
3072,42,104,206,284,334,116,60,42,-7145,-11069,-3023,-9260,1235,1626,34,-10,5,-31
3089,41,89,169,319,337,132,67,45,-7155,-11065,-3030,-9255,1198,1620,44,-15,-3,-62
3110,42,84,190,307,353,143,71,48,-7163,-11063,-3041,-9248,1152,1582,19,-6,4,-73
3132,32,79,178,303,339,133,67,41,-7172,-11061,-3053,-9239,1175,1577,23,4,-6,-93
3149,27,68,154,304,326,125,64,40,-7182,-11060,-3062,-9229,1160,1559,26,-7,-17,-93
3171,33,64,154,301,303,130,69,40,-7190,-11061,-3065,-9222,1155,1551,25,-14,-29,-57
3192,36,72,141,251,279,129,68,42,-7195,-11063,-3064,-9215,1152,1574,9,-24,-31,-18
3209,40,76,163,269,252,121,64,41,-7199,-11067,-3055,-9209,1153,1586,-8,-48,-50,20
3230,43,78,170,288,241,127,64,47,-7208,-11074,-3037,-9200,1140,1566,2,-76,-101,33
3252,46,81,184,265,226,122,59,45,-7218,-11086,-3016,-9185,1166,1564,-23,-88,-141,24
3269,44,87,191,231,204,110,51,44,-7231,-11103,-2993,-9162,1150,1582,-28,-78,-194,18
3290,45,84,185,197,187,94,43,42,-7249,-11139,-2961,-9115,1121,1597,-82,-75,-353,13
3312,44,83,137,163,161,77,34,39,-7279,-11207,-2909,-9024,1095,1616,-164,-94,-663,-8
3329,50,86,127,101,79,53,28,30,-7331,-11306,-2829,-8882,1053,1622,-191,-132,-1045,-44
3350,84,115,102,73,66,45,27,29,-7397,-11422,-2721,-8712,1103,1600,-169,-181,-1304,-68
3372,117,131,65,64,61,45,30,55,-7470,-11529,-2607,-8541,1124,1666,-196,-244,-1302,-63
3389,185,146,76,58,52,37,30,54,-7530,-11638,-2491,-8373,1141,1677,-231,-198,-1289,-20
3410,203,151,73,51,49,43,34,65,-7586,-11754,-2353,-8199,1016,1609,-276,-232,-1378,110
3432,205,157,70,46,47,47,34,73,-7651,-11875,-2168,-8013,931,1631,-366,-404,-1547,283
3449,204,138,67,45,44,48,34,78,-7725,-11987,-1926,-7835,1002,1544,-263,-546,-1706,409
3470,242,118,64,42,44,46,33,75,-7789,-12100,-1667,-7655,1172,1406,-263,-545,-1763,477
3492,211,103,52,40,44,46,33,80,-7834,-12212,-1414,-7481,1450,1282,-196,-449,-1720,473
3509,198,116,52,36,40,44,32,87,-7840,-12312,-1159,-7352,1558,1329,-175,-316,-1540,527
3530,227,119,50,31,40,45,40,109,-7812,-12415,-937,-7240,1573,1376,-218,-92,-1376,543
3552,248,121,51,32,41,56,48,116,-7758,-12514,-733,-7151,1531,1404,-230,51,-1212,631
3575,212,121,45,29,37,60,51,117,-7701,-12597,-548,-7084,1505,1512,-268,75,-1027,681
3590,209,126,51,29,35,59,52,115,-7654,-12668,-384,-7019,1471,1559,-334,36,-916,607
3612,212,111,50,27,33,55,52,107,-7623,-12725,-243,-6955,1471,1597,-379,-17,-810,498
3635,178,98,50,27,28,49,45,79,-7616,-12760,-133,-6900,1502,1644,-380,-95,-649,336
3650,158,93,46,27,28,36,37,70,-7629,-12771,-56,-6868,1520,1568,-398,-182,-402,174
3672,165,91,46,25,29,28,36,65,-7658,-12757,-2,-6861,1499,1466,-412,-282,-168,72
3695,167,77,33,27,29,31,36,68,-7689,-12736,32,-6866,1463,1420,-408,-273,-40,12
3710,161,68,29,28,32,47,38,66,-7717,-12714,57,-6875,1425,1381,-423,-253,15,-3
3740,160,63,28,28,33,58,40,65,-7743,-12692,87,-6886,1388,1336,-410,-258,14,26
3755,143,60,30,28,32,66,46,81,-7764,-12671,134,-6899,1372,1293,-395,-273,-19,107
3770,154,58,30,30,39,69,48,83,-7773,-12652,194,-6923,1374,1230,-374,-247,-21,207
3792,193,66,34,30,41,69,46,90,-7775,-12634,258,-6952,1395,1293,-388,-223,-9,273
3816,199,63,33,28,38,59,42,94,-7775,-12618,321,-6978,1369,1356,-392,-209,-14,308
3830,202,68,34,28,35,51,42,102,-7790,-12599,383,-6993,1334,1357,-369,-267,-50,260
3852,211,100,36,27,34,43,41,89,-7828,-12572,443,-6995,1299,1292,-383,-399,-65,151
3875,293,101,42,31,34,48,38,81,-7892,-12533,503,-6989,1247,1131,-481,-603,-24,31
3890,273,102,49,33,33,48,41,67,-7938,-12510,583,-6972,1374,1131,-646,-604,-109,80
3920,270,119,57,37,33,51,42,58,-7971,-12503,684,-6938,1443,1361,-586,-509,-311,211
3935,279,134,92,39,34,54,44,46,-8029,-12485,816,-6889,1405,1500,-458,-663,-466,325
3950,278,129,109,41,42,69,44,38,-8125,-12444,978,-6829,1389,1376,-376,-944,-559,295
3972,165,150,112,38,37,65,44,37,-8239,-12393,1122,-6764,1413,1313,-237,-962,-549,138
4003,181,199,121,41,42,83,48,61,-8321,-12348,1229,-6725,1444,1323,-89,-664,-416,119
4010,185,200,133,40,45,90,49,69,-8381,-12306,1319,-6712,1453,1380,30,-466,-309,191
4032,200,231,133,40,48,96,53,91,-8422,-12267,1388,-6716,1507,1268,-81,-376,-156,132
4055,199,231,122,39,45,90,50,92,-8430,-12257,1436,-6715,1506,1293,-219,-157,-143,109
4071,195,248,142,42,46,92,50,92,-8433,-12256,1483,-6702,1470,1411,-215,-111,-213,135
4092,161,219,137,38,42,76,45,80,-8441,-12257,1523,-6682,1592,1542,-178,-86,-253,82
4115,176,217,129,36,38,67,49,75,-8458,-12248,1550,-6670,1633,1566,-133,-98,-165,27
4130,213,187,126,37,46,70,56,51,-8468,-12242,1547,-6669,1638,1539,-144,6,-43,-62
4152,225,220,152,39,48,73,59,71,-8457,-12252,1508,-6676,1601,1542,-192,208,66,-137
4175,230,192,133,35,51,72,62,70,-8430,-12276,1452,-6677,1515,1484,-209,345,63,-197
4191,230,182,129,33,53,71,61,70,-8393,-12308,1390,-6678,1558,1465,-224,417,56,-225
4212,216,174,122,32,54,72,57,70,-8351,-12347,1312,-6674,1507,1497,-254,487,67,-269
4235,142,158,102,30,46,55,42,64,-8306,-12389,1226,-6671,1464,1453,-304,510,107,-303
4251,104,89,48,24,41,42,35,78,-8269,-12419,1138,-6676,1450,1410,-328,439,186,-323
4272,80,70,37,24,37,33,29,99,-8240,-12437,1047,-6693,1396,1364,-376,363,294,-309
4295,122,93,34,27,33,37,29,103,-8220,-12441,968,-6721,1321,1317,-414,238,366,-238
4311,137,114,40,28,34,36,28,109,-8195,-12448,910,-6747,1144,1264,-398,220,295,-91
4333,145,120,50,30,31,44,35,111,-8166,-12463,884,-6758,1203,1268,-500,145,154,-16
4355,175,123,51,31,33,49,41,87,-8150,-12475,884,-6756,1261,1349,-597,-6,66,38
4372,178,154,95,34,37,50,41,63,-8142,-12487,891,-6741,1311,1417,-606,-61,-8,20
4392,164,194,115,32,42,58,44,57,-8152,-12492,909,-6718,1285,1399,-379,-99,-136,9
4415,162,184,123,36,42,57,43,44,-8173,-12482,944,-6706,1376,1307,-169,-146,-184,21
4430,160,193,123,36,52,64,58,55,-8173,-12472,963,-6722,1419,1251,-115,4,-46,46
4452,160,214,139,40,62,74,64,61,-8154,-12467,951,-6756,1410,1420,-175,168,122,70
4475,163,197,121,41,60,74,64,69,-8131,-12464,925,-6793,1404,1424,-348,150,231,40
4490,147,149,102,47,63,68,67,68,-8112,-12460,902,-6827,1381,1365,-375,110,232,18
4512,175,175,105,45,66,77,72,68,-8083,-12461,883,-6860,1414,1400,-377,161,197,60
4535,192,223,136,47,67,82,66,96,-8048,-12469,860,-6889,1443,1465,-402,209,181,61
4557,165,210,132,47,58,74,60,114,-8022,-12478,837,-6907,1420,1447,-508,131,172,15
4572,171,240,140,52,65,78,62,113,-8005,-12483,831,-6919,1436,1426,-489,42,108,36
4595,182,236,149,52,73,81,59,116,-7989,-12487,825,-6931,1457,1463,-439,62,87,39
4617,152,224,157,53,80,83,66,118,-7971,-12493,809,-6942,1463,1472,-417,109,97,3
4632,139,162,127,53,79,76,58,99,-7955,-12501,784,-6950,1411,1426,-441,114,112,-49
4655,158,166,123,50,77,72,54,73,-7941,-12506,762,-6959,1407,1376,-426,95,115,-58
4677,153,129,114,41,71,71,53,67,-7921,-12513,738,-6971,1427,1381,-452,118,131,-44
4692,186,145,122,36,60,71,54,63,-7906,-12517,722,-6982,1424,1388,-484,60,126,-26
4715,182,133,100,33,49,57,39,58,-7898,-12522,708,-6984,1373,1387,-451,38,76,-32
4737,178,153,103,33,48,51,38,33,-7898,-12524,703,-6981,1359,1367,-355,10,3,-37
4754,165,146,95,34,51,53,37,34,-7900,-12523,707,-6981,1390,1324,-333,-23,-13,-12
4775,178,158,122,48,53,51,37,38,-7899,-12518,711,-6990,1425,1379,-345,-19,31,19
4797,139,152,106,48,51,49,32,34,-7898,-12513,714,-7000,1429,1408,-377,-28,58,30
4812,129,151,103,49,56,49,31,33,-7901,-12507,722,-7006,1417,1417,-362,-56,26,43
4835,118,129,101,46,51,43,30,34,-7904,-12503,733,-7009,1411,1399,-344,-49,-6,46
4857,117,117,98,44,47,39,28,32,-7903,-12500,743,-7014,1433,1408,-294,-9,-22,45
4872,110,85,51,30,42,34,26,26,-7898,-12499,747,-7021,1419,1400,-262,40,-11,46
4895,96,69,39,30,43,23,25,26,-7888,-12496,750,-7037,1494,1420,-248,65,24,51
4917,93,68,40,29,33,27,26,26,-7877,-12490,738,-7063,1530,1440,-294,85,126,20
4932,92,65,37,29,28,27,26,26,-7868,-12480,714,-7091,1513,1439,-355,72,206,-26
4955,83,55,40,29,32,27,25,25,-7860,-12469,688,-7122,1459,1428,-379,55,243,-11
4977,31,46,36,29,31,27,25,23,-7849,-12460,668,-7153,1404,1398,-398,51,233,29
4992,27,43,34,44,36,25,23,24,-7838,-12451,652,-7182,1405,1403,-376,47,206,51
5015,25,51,48,68,75,43,32,24,-7829,-12437,638,-7217,1390,1355,-311,44,223,56
5037,26,58,70,70,85,47,32,23,-7814,-12418,617,-7268,1475,1378,-306,74,314,66
5052,27,60,89,73,97,50,33,24,-7795,-12392,578,-7336,1499,1414,-262,133,432,51
5075,25,73,96,77,106,53,35,24,-7770,-12365,523,-7411,1504,1418,-243,208,502,24
5097,25,87,127,73,104,53,34,22,-7747,-12336,451,-7488,1497,1407,-197,244,552,-51
5112,32,105,148,57,85,41,25,22,-7729,-12298,363,-7573,1470,1367,-158,251,644,-108
5135,32,103,139,60,83,40,26,24,-7706,-12256,263,-7668,1465,1379,-119,301,718,-126
5157,32,102,127,62,74,37,25,22,-7675,-12217,141,-7764,1487,1340,-131,385,784,-208
5172,37,98,132,82,83,42,27,28,-7647,-12173,0,-7860,1445,1317,-178,388,870,-293
5195,38,92,120,83,90,46,28,27,-7619,-12127,-147,-7959,1432,1347,-200,386,922,-302
0,Repeat 5,,,,,,,,,,,,,,,,,
15,29,90,133,83,86,46,27,27,-7540,-12040,-435,-8152,1387,1365,-209,425,888,-244
38,26,96,153,87,94,61,34,32,-7502,-11997,-566,-8242,1381,1391,-247,360,869,-205
60,27,109,161,80,114,67,36,29,-7463,-11953,-678,-8333,1358,1379,-208,316,825,-117
75,32,127,188,96,122,69,35,30,-7424,-11912,-783,-8416,1354,1412,-238,289,772,-95
98,31,120,194,93,119,64,35,31,-7393,-11869,-893,-8493,1351,1446,-226,271,771,-144
121,35,118,187,94,121,65,39,32,-7365,-11828,-1013,-8561,1363,1421,-208,293,750,-231
135,35,117,180,87,112,52,33,29,-7341,-11792,-1130,-8616,1343,1421,-223,276,678,-270
158,32,106,185,79,79,42,30,30,-7321,-11767,-1234,-8654,1302,1462,-217,260,548,-230
181,30,78,156,58,59,33,30,30,-7297,-11759,-1318,-8673,1282,1478,-210,264,369,-176
196,29,70,122,61,64,36,32,34,-7285,-11751,-1388,-8682,1296,1489,-213,184,286,-181
218,27,69,124,57,58,36,28,29,-7288,-11726,-1440,-8705,1353,1476,-155,40,326,-163
241,27,96,168,66,65,37,31,28,-7295,-11701,-1484,-8726,1350,1451,-147,-1,288,-160
263,29,167,207,83,59,36,30,32,-7299,-11678,-1523,-8746,1312,1430,-100,21,257,-127
278,26,176,215,86,56,36,33,33,-7295,-11653,-1562,-8776,1332,1479,-70,47,298,-69
300,25,173,222,84,53,35,33,30,-7293,-11622,-1603,-8811,1357,1513,-30,45,325,-71
323,25,184,236,88,50,40,32,33,-7292,-11594,-1650,-8840,1317,1491,-15,73,306,-114
338,24,173,216,88,38,43,29,34,-7287,-11571,-1707,-8863,1265,1512,-17,127,299,-123
361,20,113,230,74,47,43,30,32,-7282,-11541,-1766,-8895,1269,1503,10,126,354,-121
383,21,101,230,70,49,46,26,30,-7278,-11501,-1834,-8936,1357,1522,-45,89,460,-179
398,22,105,236,71,54,51,30,30,-7282,-11456,-1905,-8975,1363,1542,-59,44,484,-220
421,20,101,224,69,57,50,30,29,-7297,-11414,-1972,-9003,1285,1548,-60,-5,413,-237
443,24,120,242,73,64,47,33,29,-7315,-11375,-2016,-9027,1223,1497,2,-54,316,-163
458,26,142,198,74,58,45,31,33,-7323,-11340,-2047,-9058,1269,1517,-39,-70,318,-76
481,25,142,192,76,68,46,34,34,-7329,-11300,-2077,-9096,1325,1510,-18,-76,361,-81
503,25,141,193,73,63,40,31,37,-7331,-11262,-2117,-9133,1274,1520,-17,-29,379,-82
518,28,132,205,75,63,38,36,38,-7326,-11225,-2160,-9171,1225,1481,26,21,382,-66
541,30,112,212,76,59,37,36,41,-7323,-11189,-2202,-9209,1296,1525,31,13,375,-83
563,27,68,196,71,60,36,35,38,-7323,-11148,-2251,-9247,1372,1603,1,-10,424,-128
578,31,62,199,75,59,49,37,41,-7337,-11107,-2307,-9271,1325,1652,-39,-52,395,-204
601,32,61,184,76,60,52,35,41,-7370,-11063,-2351,-9287,1179,1611,-21,-160,320,-204
623,30,62,174,72,63,55,32,39,-7413,-11021,-2370,-9297,1059,1517,56,-239,194,-138
638,24,68,211,69,69,59,35,34,-7451,-10989,-2369,-9304,1016,1425,119,-225,87,-62
661,26,76,248,82,70,63,38,32,-7476,-10966,-2359,-9315,1102,1411,173,-172,44,-16
683,25,84,256,88,64,53,33,28,-7486,-10939,-2359,-9339,1167,1418,224,-80,136,2
698,26,91,281,94,66,50,34,23,-7475,-10917,-2371,-9370,1179,1479,206,26,197,63
720,26,89,283,94,63,46,32,26,-7453,-10898,-2389,-9404,1196,1567,185,84,235,110
743,27,118,285,102,64,44,28,28,-7437,-10879,-2409,-9433,1202,1637,170,53,221,92
758,25,113,262,90,59,49,35,32,-7430,-10863,-2426,-9454,1190,1644,159,22,175,66
781,23,107,252,85,59,50,39,31,-7432,-10850,-2439,-9464,1203,1608,156,-9,108,2
803,25,104,234,81,75,65,41,36,-7436,-10831,-2455,-9479,1236,1591,183,-19,146,-25
819,27,102,243,88,83,67,43,32,-7436,-10813,-2479,-9492,1227,1581,163,19,165,-47
848,29,55,173,78,82,69,44,33,-7428,-10794,-2505,-9513,1199,1518,164,44,209,-22
863,29,55,168,81,101,64,37,28,-7421,-10781,-2528,-9528,1126,1498,129,37,173,0
878,33,60,215,102,131,73,37,32,-7424,-10768,-2538,-9538,1063,1460,176,-15,91,18
900,33,60,231,103,163,67,36,30,-7423,-10752,-2539,-9555,1110,1465,178,-46,114,56
923,33,67,218,110,224,71,39,32,-7422,-10734,-2539,-9577,1166,1529,178,-62,134,75
938,32,82,254,116,243,88,46,34,-7417,-10723,-2531,-9595,1199,1512,215,-42,77,92
961,36,85,260,160,259,102,51,41,-7402,-10709,-2530,-9623,1205,1520,234,12,143,123
983,36,89,236,223,284,122,58,41,-7384,-10697,-2536,-9648,1214,1556,190,28,164,114
1006,38,89,225,244,329,159,76,49,-7373,-10682,-2541,-9672,1201,1570,191,-10,156,103
1021,40,98,278,247,337,187,85,53,-7367,-10675,-2541,-9684,1196,1580,170,-29,80,84
1043,47,97,252,253,365,204,88,58,-7371,-10665,-2535,-9694,1196,1530,188,-73,55,46
1058,47,91,239,273,367,202,85,54,-7380,-10658,-2530,-9695,1211,1512,171,-81,18,1
1080,51,90,216,224,342,198,84,62,-7390,-10662,-2522,-9686,1162,1485,188,-54,-76,0
1103,49,87,200,217,280,168,67,54,-7393,-10673,-2510,-9674,1155,1494,188,-23,-109,42
1118,48,72,103,225,231,137,54,52,-7396,-10687,-2485,-9662,1134,1495,181,-55,-156,101
1140,43,63,101,229,183,108,51,51,-7400,-10711,-2443,-9644,1114,1464,170,-86,-255,162
1163,50,75,186,197,212,119,59,54,-7398,-10744,-2377,-9626,1165,1460,180,-115,-338,248
1186,50,76,207,218,241,125,68,51,-7388,-10770,-2318,-9618,1261,1488,211,-79,-267,254
1200,52,76,215,229,248,139,75,53,-7379,-10787,-2271,-9618,1326,1530,223,-64,-176,211
1223,55,81,216,232,261,154,83,56,-7368,-10804,-2230,-9617,1320,1516,214,-38,-162,193
1245,57,81,218,288,283,165,83,55,-7354,-10822,-2196,-9615,1293,1517,199,-11,-151,190
1260,55,92,177,321,296,178,88,57,-7333,-10836,-2171,-9621,1313,1490,222,43,-86,191
1283,49,101,217,318,309,168,79,49,-7304,-10838,-2165,-9642,1357,1510,193,83,69,162
1306,46,104,229,324,312,162,74,46,-7285,-10833,-2177,-9659,1377,1529,172,80,131,45
1321,47,104,236,326,318,163,73,48,-7275,-10830,-2199,-9665,1353,1528,149,84,108,-35
1343,42,98,223,283,313,146,67,46,-7271,-10832,-2216,-9662,1293,1502,126,57,43,-39
1366,37,80,219,251,298,135,66,44,-7269,-10836,-2221,-9658,1281,1477,148,21,-5,-7
1380,39,63,165,236,266,131,68,47,-7266,-10843,-2218,-9653,1284,1463,135,8,-35,12
1403,42,64,157,218,283,142,74,50,-7270,-10850,-2211,-9643,1279,1452,171,-10,-81,0
1426,41,67,205,276,268,153,78,56,-7275,-10857,-2199,-9634,1273,1457,201,-24,-103,14
1440,39,80,203,265,259,155,80,54,-7276,-10865,-2192,-9626,1294,1448,197,14,-85,4
1472,41,84,208,278,250,147,71,56,-7276,-10873,-2190,-9618,1296,1467,187,30,-73,-7
1486,41,85,205,292,260,149,69,54,-7275,-10883,-2192,-9607,1295,1469,149,37,-59,-22
1501,38,81,195,308,270,146,65,52,-7273,-10886,-2201,-9602,1250,1464,168,49,-15,-19
1523,33,75,154,271,283,120,54,40,-7267,-10891,-2209,-9600,1239,1442,153,63,1,-1
1546,36,60,154,270,280,117,55,39,-7258,-10898,-2207,-9600,1253,1425,136,37,-18,45
1561,32,53,144,268,266,111,54,37,-7245,-10906,-2197,-9603,1309,1431,137,29,-24,76
1583,28,48,145,264,261,108,56,37,-7229,-10914,-2190,-9608,1351,1453,119,40,0,76
1606,31,52,148,246,238,103,56,39,-7214,-10924,-2190,-9607,1342,1497,94,55,-2,52
1620,36,67,135,271,237,139,62,43,-7204,-10938,-2185,-9600,1315,1522,87,34,-60,62
1643,35,72,177,317,297,151,62,48,-7200,-10954,-2170,-9588,1319,1537,81,-10,-111,77
1666,37,71,188,307,301,148,59,48,-7209,-10969,-2154,-9568,1304,1511,94,-56,-152,13
1681,38,69,182,293,297,147,59,48,-7228,-10982,-2136,-9542,1274,1476,129,-78,-202,-31
1703,38,74,187,320,333,154,60,51,-7247,-11001,-2116,-9510,1255,1442,140,-62,-248,-38
1726,38,65,184,277,320,126,50,50,-7259,-11020,-2091,-9485,1274,1429,172,-42,-249,8
1741,37,60,147,228,248,110,49,51,-7263,-11037,-2061,-9469,1319,1406,189,-30,-217,50
1763,34,59,110,209,226,106,46,47,-7259,-11052,-2031,-9461,1355,1432,181,-9,-177,94
1786,36,61,109,218,224,109,46,47,-7250,-11069,-2002,-9454,1352,1438,150,2,-154,115
1801,34,47,80,162,146,86,39,42,-7239,-11087,-1979,-9446,1317,1459,103,13,-139,117
1823,28,36,67,157,128,67,36,34,-7233,-11107,-1957,-9432,1300,1469,78,3,-160,103
1846,30,35,62,162,128,70,35,29,-7230,-11126,-1935,-9415,1341,1462,72,-16,-169,66
1861,31,38,63,155,124,70,37,29,-7236,-11149,-1910,-9389,1342,1453,30,-55,-219,26
1883,32,40,65,153,146,64,35,31,-7249,-11177,-1876,-9353,1363,1469,5,-97,-286,12
1906,30,39,65,141,136,63,33,32,-7265,-11212,-1830,-9308,1313,1465,15,-119,-386,51
1921,31,41,65,136,133,61,34,34,-7282,-11255,-1765,-9254,1253,1415,58,-134,-519,111
1943,27,39,56,125,123,53,31,33,-7294,-11313,-1680,-9190,1248,1351,82,-118,-661,171
1966,28,37,50,118,121,48,29,37,-7300,-11394,-1566,-9105,1243,1334,103,-102,-898,265
1981,23,33,53,104,74,43,32,34,-7296,-11479,-1437,-9022,1352,1370,200,-50,-979,339
2003,30,33,55,123,96,60,37,37,-7272,-11544,-1326,-8975,1500,1384,190,16,-730,369
2026,29,35,48,121,99,61,44,42,-7243,-11587,-1252,-8955,1466,1394,71,39,-417,323
2041,30,32,56,109,97,65,45,41,-7219,-11603,-1220,-8958,1397,1391,31,57,-132,213
2063,28,30,64,125,140,82,49,40,-7189,-11605,-1225,-8978,1380,1352,-27,135,98,117
2086,36,45,80,159,179,101,53,39,-7155,-11600,-1259,-9007,1432,1358,-61,199,241,19
2101,36,60,88,163,218,123,62,46,-7109,-11604,-1312,-9030,1502,1426,-195,283,288,-37
2123,35,61,89,165,232,133,59,42,-7063,-11620,-1370,-9038,1482,1501,-289,300,239,-46
2146,35,63,96,177,236,134,59,43,-7028,-11638,-1404,-9037,1458,1493,-305,190,145,-2
2168,35,63,100,178,216,125,56,41,-7008,-11656,-1410,-9027,1445,1492,-289,54,16,48
2183,30,52,90,155,188,111,51,42,-7007,-11674,-1390,-9009,1455,1450,-208,-61,-117,48
2206,27,39,92,142,142,83,37,35,-7015,-11684,-1362,-8994,1503,1436,-112,-111,-144,37
2228,29,39,99,137,132,69,36,33,-7030,-11692,-1332,-8975,1486,1415,-36,-113,-192,16
2243,30,38,96,120,132,69,39,34,-7045,-11700,-1304,-8958,1477,1386,44,-75,-213,0
2266,31,36,93,109,136,69,41,33,-7055,-11705,-1288,-8946,1443,1352,84,-16,-162,-16
2288,28,42,91,136,146,75,45,34,-7059,-11701,-1291,-8947,1416,1336,89,43,-43,-49
2303,28,39,80,133,136,68,44,29,-7054,-11692,-1313,-8959,1406,1314,41,98,94,-77
2326,27,36,75,140,127,73,43,28,-7040,-11682,-1348,-8979,1380,1307,-30,136,190,-75
2348,26,37,67,140,117,70,40,29,-7020,-11672,-1384,-9003,1365,1338,-78,148,227,-35
2363,29,40,68,175,140,78,41,30,-6994,-11662,-1415,-9030,1376,1362,-110,141,244,16
2394,32,42,69,165,163,90,42,33,-6965,-11657,-1438,-9055,1401,1392,-156,123,226,57
2408,32,43,75,177,177,100,48,39,-6942,-11656,-1452,-9072,1417,1408,-157,85,157,63
2423,33,46,84,189,183,102,49,49,-6927,-11657,-1457,-9082,1453,1424,-148,33,87,49
2446,35,46,92,198,194,107,50,51,-6924,-11658,-1457,-9082,1481,1427,-135,-10,28,-1
2468,33,48,95,198,184,105,52,56,-6930,-11661,-1456,-9075,1446,1394,-120,-43,-19,-38
2483,29,54,122,185,155,90,45,54,-6934,-11663,-1450,-9070,1456,1386,-91,-40,-26,-18
2506,31,59,126,183,140,80,37,54,-6931,-11662,-1450,-9073,1448,1390,-72,2,19,-1
2528,31,56,120,172,129,73,35,46,-6928,-11657,-1456,-9081,1450,1407,-65,14,64,-3
2543,34,59,117,189,132,73,36,43,-6924,-11652,-1464,-9089,1446,1394,-76,10,78,-10
2566,35,64,122,162,163,91,40,48,-6923,-11644,-1472,-9098,1427,1386,-63,6,84,-20
2588,38,63,125,170,188,105,48,50,-6918,-11639,-1484,-9107,1444,1409,-71,33,89,-17
2603,36,63,128,179,225,116,59,50,-6918,-11630,-1498,-9116,1401,1386,-68,11,102,-37
2626,41,67,135,190,255,132,65,55,-6918,-11620,-1513,-9127,1402,1381,-46,18,109,-39
2648,38,63,140,177,257,138,69,55,-6917,-11608,-1534,-9138,1419,1384,-45,31,132,-68
2663,36,57,146,217,248,133,71,51,-6917,-11592,-1559,-9155,1475,1406,-30,35,172,-85
2686,34,47,144,231,236,125,66,50,-6918,-11576,-1591,-9169,1464,1437,-30,53,182,-116
2716,35,49,150,225,206,118,57,47,-6915,-11562,-1628,-9182,1433,1452,-35,85,184,-107
2723,30,47,152,228,180,98,49,41,-6915,-11545,-1662,-9198,1432,1456,-41,53,198,-103
2746,28,54,146,219,166,84,42,41,-6920,-11526,-1696,-9211,1453,1468,-38,26,194,-126
2768,26,62,150,179,138,65,32,37,-6928,-11506,-1732,-9224,1463,1469,-49,15,206,-157
2783,25,78,130,147,116,57,29,37,-6938,-11487,-1767,-9233,1469,1485,-72,3,194,-164
2806,23,83,129,130,98,44,27,36,-6952,-11466,-1801,-9242,1490,1522,-77,-34,201,-175
2828,20,82,118,95,60,37,27,40,-6976,-11445,-1826,-9245,1448,1532,-62,-92,139,-170
2843,28,87,124,83,47,34,23,36,-7005,-11437,-1836,-9231,1387,1510,-82,-122,9,-148
2866,28,85,108,62,37,27,20,34,-7043,-11441,-1832,-9198,1316,1498,-76,-164,-144,-137
2896,30,72,101,53,31,28,21,43,-7090,-11457,-1815,-9146,1261,1441,-68,-189,-300,-160
2903,31,59,81,38,29,26,22,42,-7141,-11486,-1786,-9075,1230,1399,-44,-189,-462,-168
2926,36,59,80,38,27,26,22,38,-7190,-11521,-1746,-9000,1250,1347,-10,-184,-535,-159
2948,30,43,69,31,24,27,24,38,-7232,-11551,-1701,-8936,1322,1347,11,-175,-491,-127
2963,31,32,48,25,25,27,23,38,-7262,-11576,-1655,-8887,1367,1378,3,-155,-419,-56
2986,36,44,50,24,26,26,26,29,-7282,-11600,-1606,-8849,1362,1414,-31,-141,-361,29
3008,38,54,52,23,24,25,26,29,-7295,-11623,-1554,-8818,1333,1437,-56,-138,-328,101
3023,40,67,46,21,23,24,27,29,-7304,-11649,-1495,-8785,1278,1450,-107,-152,-342,165
3046,65,95,45,21,24,20,25,31,-7318,-11678,-1428,-8746,1248,1471,-125,-191,-390,192
3068,113,112,51,26,26,29,26,32,-7340,-11714,-1360,-8691,1233,1489,-106,-189,-490,157
3091,123,111,46,27,24,31,24,36,-7362,-11761,-1299,-8617,1276,1434,-163,-149,-572,36
3106,130,107,40,33,29,41,32,50,-7403,-11810,-1240,-8523,1249,1439,-205,-218,-643,-56
3128,131,102,41,36,29,44,35,53,-7449,-11862,-1169,-8420,1257,1417,-194,-246,-736,-66
3151,123,80,36,37,30,49,37,59,-7486,-11923,-1078,-8313,1283,1321,-155,-231,-844,-7
3166,95,65,28,37,28,46,40,59,-7507,-11987,-975,-8214,1360,1305,-117,-167,-875,71
3188,115,58,27,35,29,45,41,63,-7509,-12053,-870,-8126,1419,1313,-129,-94,-834,147
3211,142,59,27,31,31,41,39,57,-7502,-12115,-770,-8051,1442,1335,-146,-50,-759,186
3226,149,56,24,29,34,42,37,58,-7492,-12169,-674,-7987,1435,1373,-170,-51,-678,223
3248,151,60,24,29,39,42,37,58,-7480,-12214,-583,-7936,1446,1378,-160,-50,-597,246
3271,151,64,29,26,38,42,33,58,-7469,-12254,-503,-7890,1476,1427,-197,-44,-526,218
3286,133,73,31,27,37,41,30,56,-7467,-12286,-433,-7846,1454,1444,-208,-71,-470,177
3308,99,74,32,24,34,38,28,61,-7475,-12309,-368,-7807,1447,1425,-210,-123,-417,136
3331,90,74,31,21,35,35,29,62,-7489,-12322,-303,-7776,1441,1389,-208,-176,-358,133
3346,89,67,30,21,32,30,35,60,-7496,-12332,-241,-7755,1502,1339,-250,-167,-285,123
3368,80,52,26,22,30,30,37,61,-7505,-12336,-186,-7742,1506,1342,-265,-174,-218,117
3391,72,41,24,24,31,29,42,55,-7507,-12341,-127,-7732,1456,1338,-269,-156,-210,173
3406,65,36,22,24,27,31,42,49,-7511,-12346,-58,-7722,1424,1338,-267,-189,-237,229
3428,62,29,25,24,23,29,43,46,-7517,-12346,18,-7716,1487,1339,-262,-221,-229,248
3451,64,35,25,25,23,30,38,38,-7527,-12341,85,-7714,1518,1359,-258,-232,-178,214
3466,63,69,31,25,24,29,41,41,-7542,-12332,146,-7713,1473,1369,-282,-254,-137,201
3488,67,76,31,25,29,36,38,41,-7555,-12326,200,-7708,1458,1352,-298,-227,-135,166
3511,67,77,31,26,31,36,41,36,-7579,-12317,248,-7697,1490,1394,-305,-262,-129,108
3526,66,216,37,26,31,49,37,37,-7611,-12307,292,-7681,1512,1424,-287,-286,-149,55
3548,80,256,62,28,33,70,39,39,-7647,-12298,337,-7658,1550,1410,-286,-304,-180,15
3571,78,259,95,32,37,76,37,34,-7678,-12294,387,-7631,1542,1392,-322,-297,-213,33
3586,90,259,118,37,37,74,35,36,-7709,-12293,448,-7598,1521,1361,-284,-307,-287,59
3608,90,259,123,37,40,82,48,36,-7734,-12296,510,-7562,1478,1291,-231,-256,-328,60
3631,97,168,123,40,56,127,69,37,-7739,-12308,554,-7536,1487,1264,-273,-122,-257,47
3646,101,100,117,39,56,116,79,54,-7738,-12318,585,-7517,1427,1282,-282,-63,-179,62
3668,103,100,109,40,57,114,81,56,-7731,-12332,614,-7500,1411,1319,-295,-23,-178,92
3691,93,105,86,38,57,125,86,57,-7728,-12348,652,-7472,1400,1365,-269,-46,-256,113
3706,101,105,78,37,56,122,86,57,-7747,-12353,701,-7441,1433,1381,-206,-167,-301,97
3728,141,146,88,33,45,79,85,67,-7771,-12350,751,-7416,1486,1338,-202,-215,-257,69
3751,164,191,112,37,53,91,77,74,-7788,-12345,787,-7402,1472,1331,-174,-141,-186,57
3766,169,188,98,32,52,99,83,74,-7785,-12351,809,-7392,1480,1316,-252,-23,-129,53
3788,167,183,97,30,50,87,85,73,-7786,-12354,826,-7385,1504,1337,-265,-34,-93,28
3811,164,182,97,34,55,103,108,75,-7785,-12358,831,-7379,1482,1325,-254,15,-67,-11
3826,131,170,102,37,58,102,109,72,-7776,-12366,834,-7374,1495,1316,-282,50,-59,-1
3848,81,121,73,35,55,116,145,58,-7759,-12382,848,-7365,1539,1351,-331,62,-110,43
3871,63,106,67,40,60,125,153,58,-7746,-12394,866,-7355,1511,1331,-361,13,-109,59
3886,87,189,102,41,65,156,196,79,-7748,-12396,883,-7348,1503,1269,-402,-86,-39,6
3908,100,204,131,48,78,159,217,103,-7759,-12394,899,-7338,1410,1199,-460,-168,-10,-23
3931,116,225,160,61,91,170,234,118,-7773,-12393,935,-7319,1389,1281,-503,-236,-82,71
3946,132,225,190,73,122,193,244,125,-7787,-12399,991,-7288,1449,1339,-407,-232,-249,123
3968,169,243,206,84,153,250,269,135,-7816,-12391,1053,-7261,1502,1274,-243,-286,-279,87
3991,167,215,201,93,171,264,276,137,-7836,-12379,1098,-7253,1525,1270,-49,-148,-226,80
4006,165,255,197,99,177,308,321,155,-7830,-12375,1122,-7263,1482,1293,-125,24,-85,130
4028,155,228,181,104,198,360,378,195,-7821,-12369,1130,-7282,1487,1288,-211,40,31,88
4051,173,285,182,110,194,353,419,206,-7816,-12355,1138,-7309,1464,1148,-276,-37,123,60
4073,234,299,209,116,218,439,549,233,-7809,-12327,1177,-7358,1396,961,-179,-113,131,215
4088,248,295,218,131,259,518,575,266,-7799,-12280,1234,-7438,1437,984,-126,-169,241,397
4111,255,283,232,137,269,553,633,281,-7752,-12238,1278,-7548,1660,1182,-156,51,383,533
4133,274,303,293,142,289,669,690,290,-7682,-12233,1261,-7630,1582,1503,-424,318,436,417
4148,268,294,278,184,331,695,750,310,-7633,-12231,1223,-7687,1574,1481,-367,299,368,203
4171,218,324,274,186,387,659,747,302,-7600,-12216,1186,-7750,1672,1352,-317,204,404,106
4193,228,325,311,217,507,677,846,315,-7575,-12192,1167,-7815,1677,1287,-391,66,433,141
4208,322,448,419,279,573,805,975,363,-7559,-12169,1153,-7869,1577,1244,-309,41,352,133
4231,320,463,408,289,584,695,968,354,-7534,-12151,1129,-7922,1611,1314,-244,138,326,126
4253,316,440,418,272,572,688,932,354,-7511,-12153,1092,-7947,1676,1478,-394,166,253,42
4268,304,404,409,288,550,698,902,345,-7510,-12151,1053,-7956,1549,1204,-252,96,157,-149
4291,290,406,385,262,429,707,854,340,-7495,-12144,1024,-7985,1592,1121,-238,114,219,-63
4313,185,285,262,192,360,519,667,271,-7489,-12143,1008,-7994,1557,1299,-419,4,161,4
4328,175,262,227,214,382,565,663,262,-7494,-12146,1028,-7983,1541,1303,-382,-123,-28,75
4351,183,281,233,232,409,584,644,244,-7507,-12145,1050,-7969,1574,1228,-187,-111,-120,12
4373,175,284,224,208,374,536,591,263,-7499,-12149,1045,-7972,1616,1199,-183,62,-8,-24
4388,166,267,206,206,360,418,515,240,-7491,-12157,1031,-7968,1529,1225,-291,69,29,-44
4410,145,226,182,202,335,390,482,244,-7491,-12167,1035,-7952,1556,1229,-310,-22,-68,-32
4433,129,209,154,149,248,306,371,226,-7499,-12180,1049,-7924,1575,1241,-267,-64,-168,-45
4448,99,178,106,97,159,212,344,208,-7502,-12203,1054,-7884,1587,1293,-268,10,-231,-85
4470,102,169,93,87,143,201,342,176,-7503,-12232,1054,-7837,1568,1252,-229,60,-282,-136
4493,107,169,88,71,128,159,296,140,-7504,-12259,1048,-7795,1572,1241,-152,101,-280,-159
2,Repeat 6,,,,,,,,,,,,,,,,,
26,116,139,78,61,83,127,226,83,-7487,-12307,984,-7745,1610,1286,-146,280,-92,-232
47,114,134,75,45,67,86,178,70,-7471,-12327,918,-7735,1626,1325,-231,309,44,-278
62,105,126,70,33,40,73,129,59,-7462,-12344,840,-7726,1558,1341,-320,274,123,-319
85,89,120,62,35,36,58,88,50,-7463,-12356,767,-7715,1537,1333,-350,196,136,-335
108,93,106,50,34,37,54,87,45,-7471,-12363,698,-7701,1485,1333,-331,147,115,-335
122,82,93,48,31,31,39,61,39,-7482,-12367,644,-7689,1559,1322,-293,100,79,-305
145,80,96,55,32,33,40,48,37,-7496,-12368,585,-7680,1571,1386,-322,90,119,-313
167,81,98,68,30,33,37,38,34,-7517,-12362,520,-7673,1575,1443,-359,46,178,-335
182,82,94,67,24,33,36,39,34,-7551,-12346,449,-7670,1514,1430,-325,-14,236,-375
205,49,82,67,22,34,31,31,33,-7590,-12323,379,-7672,1389,1278,-218,-27,242,-394
227,44,79,69,21,30,25,29,26,-7619,-12302,314,-7679,1360,1200,-192,5,234,-363
242,41,51,58,19,29,22,28,30,-7635,-12287,253,-7690,1396,1222,-215,63,232,-310
265,37,53,37,19,29,22,26,29,-7639,-12274,197,-7708,1454,1265,-230,95,247,-249
288,34,59,42,23,25,20,20,29,-7637,-12259,142,-7736,1461,1306,-213,116,288,-194
304,29,65,46,22,25,21,23,28,-7632,-12241,88,-7770,1441,1319,-219,121,323,-152
325,48,102,77,22,26,21,22,32,-7632,-12217,34,-7807,1430,1361,-207,90,352,-145
348,57,133,97,26,26,24,24,33,-7636,-12191,-28,-7844,1391,1400,-179,93,371,-153
363,57,131,101,27,25,24,22,34,-7632,-12172,-95,-7877,1393,1411,-178,160,357,-169
386,59,132,107,26,28,25,26,35,-7634,-12152,-167,-7905,1429,1414,-193,136,352,-233
407,65,178,133,28,27,29,26,39,-7642,-12128,-258,-7932,1425,1451,-203,147,413,-320
422,84,174,145,31,31,33,27,39,-7642,-12106,-363,-7961,1393,1445,-201,220,461,-354
445,85,161,148,28,32,32,29,35,-7638,-12084,-482,-7991,1344,1511,-220,264,514,-360
467,90,169,152,36,35,34,32,37,-7637,-12067,-591,-8011,1317,1449,-201,247,422,-376
490,152,174,168,40,34,37,31,45,-7646,-12046,-695,-8026,1346,1459,-214,168,406,-411
505,195,131,159,44,40,35,30,46,-7655,-12024,-791,-8041,1292,1450,-212,145,389,-368
527,188,119,253,82,44,40,30,45,-7653,-12008,-883,-8056,1309,1446,-217,189,370,-333
550,190,125,267,85,44,40,26,45,-7657,-11989,-962,-8073,1332,1457,-201,127,345,-305
565,192,149,308,96,44,40,25,46,-7660,-11963,-1041,-8098,1361,1515,-165,125,383,-287
587,149,157,305,100,48,41,33,41,-7660,-11941,-1128,-8119,1349,1517,-129,180,366,-312
610,102,166,308,103,46,41,35,38,-7656,-11923,-1223,-8135,1334,1570,-147,227,365,-334
625,95,178,234,79,42,33,34,36,-7662,-11900,-1329,-8147,1307,1619,-132,213,385,-395
647,91,184,233,79,42,35,38,36,-7680,-11868,-1438,-8159,1298,1583,-119,144,411,-464
670,83,191,251,88,43,38,37,34,-7705,-11829,-1548,-8172,1277,1602,-141,88,442,-492
685,83,186,249,90,41,36,29,32,-7740,-11785,-1659,-8181,1291,1614,-176,23,456,-544
707,57,185,283,93,43,38,28,34,-7788,-11727,-1770,-8196,1277,1599,-149,-68,502,-590
730,54,171,317,101,51,41,30,37,-7839,-11660,-1873,-8220,1215,1540,-129,-133,541,-550
746,46,156,312,105,59,47,30,35,-7884,-11593,-1958,-8251,1147,1507,-109,-162,527,-437
767,40,116,269,88,60,44,29,34,-7920,-11524,-2028,-8295,1170,1495,-39,-162,533,-336
790,32,120,313,90,59,44,31,33,-7944,-11460,-2095,-8346,1241,1498,-57,-129,558,-307
805,29,109,300,94,66,46,33,28,-7956,-11389,-2164,-8412,1274,1529,-77,-125,661,-251
827,28,135,272,82,58,42,31,22,-7962,-11313,-2228,-8492,1198,1558,-54,-141,722,-138
850,28,138,273,77,63,62,38,27,-7954,-11249,-2280,-8571,1038,1543,-45,-85,664,16
865,27,156,329,81,66,76,40,31,-7937,-11197,-2324,-8643,965,1549,8,-24,569,102
887,26,146,308,85,75,80,42,33,-7924,-11151,-2365,-8703,989,1646,-27,-38,512,97
910,27,146,299,83,69,80,41,34,-7914,-11115,-2399,-8749,1026,1648,4,-29,403,65
925,27,122,305,88,75,83,41,40,-7903,-11093,-2428,-8779,1036,1678,-1,9,290,61
947,27,128,320,93,65,69,33,35,-7889,-11080,-2458,-8799,1022,1663,11,59,223,45
970,27,102,265,97,61,57,31,32,-7877,-11075,-2488,-8808,1010,1618,56,103,147,9
985,27,102,240,91,56,56,32,32,-7862,-11072,-2519,-8817,1065,1631,78,134,137,-8
1007,27,109,243,81,53,53,30,32,-7853,-11070,-2547,-8819,1052,1616,64,103,97,-33
1030,31,117,243,86,49,50,30,25,-7844,-11072,-2566,-8818,1037,1592,67,97,48,-5
1045,27,109,242,76,52,44,28,28,-7827,-11083,-2578,-8816,1043,1569,71,129,3,40
1067,27,111,232,67,53,42,30,30,-7808,-11091,-2589,-8820,1087,1642,97,136,28,70
1090,27,111,235,66,50,35,24,26,-7788,-11102,-2604,-8818,1077,1614,33,139,24,35
1105,27,104,231,64,49,34,22,28,-7777,-11115,-2627,-8806,1073,1658,42,147,-12,-27
1127,22,102,235,69,49,36,24,30,-7771,-11133,-2654,-8780,1021,1621,49,177,-83,-87
1150,23,115,235,79,50,38,24,28,-7771,-11155,-2675,-8746,976,1585,46,160,-142,-92
1165,23,123,240,76,45,35,23,28,-7766,-11186,-2691,-8706,1012,1572,39,190,-202,-89
1187,22,150,251,79,49,37,23,28,-7750,-11224,-2709,-8664,1079,1615,7,249,-210,-83
1210,21,157,252,85,51,36,25,26,-7733,-11264,-2728,-8622,1036,1580,24,273,-223,-71
1225,32,178,255,82,54,36,25,30,-7714,-11302,-2745,-8584,1026,1589,17,276,-202,-48
1247,32,181,275,88,49,35,26,32,-7686,-11341,-2763,-8552,1009,1573,-3,303,-178,-4
1270,32,185,318,100,51,41,25,30,-7659,-11376,-2773,-8527,1021,1586,17,275,-163,34
1285,35,171,324,100,46,39,27,30,-7627,-11411,-2777,-8507,1071,1580,-5,273,-154,68
1309,42,181,310,97,47,39,28,36,-7590,-11445,-2779,-8493,1090,1603,-22,267,-125,98
1330,40,182,316,104,40,39,31,33,-7547,-11480,-2781,-8484,1149,1637,-64,284,-98,123
1345,45,196,345,124,44,40,34,31,-7503,-11513,-2781,-8478,1143,1663,-105,252,-78,151
1367,47,216,353,138,54,40,38,38,-7462,-11546,-2774,-8472,1191,1735,-160,211,-77,173
1390,45,225,369,147,55,43,37,40,-7431,-11574,-2756,-8467,1211,1738,-152,131,-106,184
1413,42,210,381,154,57,44,37,34,-7411,-11594,-2730,-8466,1253,1747,-155,37,-99,179
1428,39,188,365,153,57,42,34,37,-7404,-11604,-2700,-8469,1291,1785,-125,-34,-89,150
1450,34,163,302,130,57,43,34,36,-7399,-11610,-2675,-8471,1263,1769,-90,-24,-80,128
1472,34,122,244,112,49,39,31,31,-7400,-11615,-2653,-8470,1222,1717,-85,-38,-86,101
1488,36,104,199,105,50,36,29,32,-7406,-11615,-2632,-8472,1156,1657,-82,-69,-62,92
