time,emg0,emg1,emg2,emg3,emg4,emg5,emg6,emg7,quat0,quat1,quat2,quat3,acc0,acc1,acc2,gyro0,gyro2,gyro2
79818,145,99,34,28,26,30,21,63,-6583,-11982,7986,-4216,1535,812,-971,-100,-1334,459
79834,151,103,37,31,28,31,21,49,-6499,-11987,8098,-4117,1537,770,-906,-4,-988,383
79856,147,118,41,36,36,38,35,69,-6463,-11985,8159,-4058,1701,843,-923,-9,-619,218
79878,209,120,40,46,58,92,116,234,-6474,-11982,8170,-4028,1983,925,-1048,-58,-297,-9
79893,214,114,39,43,58,102,128,269,-6530,-11965,8145,-4038,2442,940,-1523,-195,156,-174
79924,252,94,35,49,61,106,136,281,-6540,-11971,8122,-4051,2150,628,-1821,-106,218,-234
79946,273,100,34,50,63,110,138,282,-6350,-12068,8135,-4039,1255,381,-1835,732,-380,-45
79953,284,107,43,51,64,116,143,282,-6027,-12232,8207,-3890,740,626,-1934,1056,-1378,88
79976,311,182,75,50,57,103,100,180,-5765,-12358,8339,-3596,1138,743,-1973,335,-2323,-36
80006,338,214,97,56,64,106,87,150,-5567,-12460,8496,-3164,1709,810,-1975,-396,-2810,-240
80013,328,226,101,54,64,109,85,147,-5357,-12568,8628,-2713,1949,776,-2049,-366,-2925,-408
80036,321,286,126,55,68,113,83,155,-5101,-12689,8736,-2257,1506,798,-1750,-120,-3054,-496
80058,346,308,131,54,69,113,72,146,-4826,-12791,8847,-1813,1249,807,-1272,-15,-3067,-392
80073,324,281,135,53,64,98,66,142,-4614,-12856,8941,-1397,1404,773,-1154,-251,-2743,-360
80096,361,267,128,54,64,89,67,125,-4474,-12900,8999,-1014,1583,813,-1293,-483,-2335,-449
80118,352,273,142,60,63,82,58,110,-4327,-12950,9030,-699,1411,698,-1148,-232,-2010,-485
80133,354,213,140,67,64,75,59,99,-4143,-12987,9077,-475,1078,493,-981,176,-1725,-225
80156,326,173,152,71,59,65,57,97,-4026,-12994,9125,-343,850,445,-936,139,-1266,-72
80178,290,167,153,71,60,63,47,86,-4003,-12992,9141,-263,885,506,-1056,-123,-703,-124
80193,214,169,154,67,56,55,38,68,-4029,-12995,9126,-243,693,550,-997,-108,-158,-161
80216,207,145,140,65,64,60,29,61,-4054,-12992,9117,-322,543,513,-1067,162,358,50
80238,219,206,134,60,66,67,37,71,-4146,-12971,9098,-483,483,600,-1182,114,1010,208
80253,216,225,116,59,66,65,50,100,-4270,-12934,9077,-727,637,585,-1548,126,1509,337
80275,229,224,93,54,63,61,58,118,-4442,-12931,8976,-968,1290,839,-2180,-4,1712,-154
80298,224,216,83,54,62,67,62,126,-4618,-12957,8827,-1148,1470,1215,-2446,-77,1431,-543
80313,212,232,101,51,56,63,61,129,-4668,-12986,8747,-1228,1090,1156,-2502,113,712,-286
80335,179,224,102,55,50,51,55,125,-4582,-12992,8779,-1262,596,730,-2385,335,123,263
80358,170,238,117,51,50,54,46,107,-4483,-12982,8844,-1266,444,515,-2169,227,-83,400
80389,159,236,118,50,52,55,38,91,-4436,-12962,8898,-1259,729,528,-2043,-12,-123,295
80395,154,235,118,52,57,51,37,81,-4441,-12939,8931,-1240,1033,705,-1937,-172,-145,145
80418,176,233,107,47,52,47,41,83,-4462,-12904,8975,-1217,1112,812,-1818,-205,-189,231
80433,184,197,112,36,48,44,43,101,-4479,-12866,9023,-1197,1065,810,-1731,-171,-191,271
80455,165,146,94,34,47,41,40,99,-4490,-12840,9057,-1183,1016,844,-1707,-81,-149,203
80478,177,137,93,32,42,34,36,93,-4502,-12829,9066,-1182,1002,872,-1651,3,-60,70
80493,176,157,105,37,31,33,37,91,-4513,-12824,9067,-1190,915,838,-1619,44,23,48
80515,165,153,113,36,34,37,32,100,-4531,-12821,9060,-1204,890,784,-1636,10,96,0
80546,145,140,90,37,35,38,30,84,-4567,-12818,9045,-1216,947,815,-1719,-85,154,-48
80560,165,172,93,37,37,38,31,90,-4613,-12819,9019,-1230,1035,814,-1766,-122,182,-126
80575,143,182,96,39,38,39,30,93,-4637,-12821,9001,-1246,935,802,-1729,-21,156,-61
80599,136,176,118,29,36,37,23,93,-4637,-12825,8992,-1266,852,721,-1705,65,117,-23
80629,130,163,110,29,33,39,22,70,-4641,-12826,8984,-1298,841,701,-1608,89,163,15
80635,149,167,133,28,32,39,21,57,-4665,-12816,8976,-1365,910,681,-1427,116,319,83
80666,149,139,158,29,32,45,25,43,-4705,-12790,8974,-1476,875,619,-1188,178,527,214
80680,159,166,163,28,37,55,25,37,-4734,-12756,8979,-1641,800,462,-1034,335,730,343
80704,165,209,161,30,40,58,25,44,-4755,-12719,8978,-1862,821,396,-928,538,937,420
80718,167,220,174,33,42,59,27,46,-4782,-12687,8945,-2148,1007,364,-929,728,1230,331
80740,152,213,158,33,41,58,30,48,-4841,-12674,8844,-2486,1400,460,-1097,837,1752,89
80755,137,211,130,32,41,54,25,47,-4973,-12663,8667,-2868,1736,695,-1483,727,2297,-224
80778,154,193,124,29,36,45,28,49,-5211,-12626,8449,-3241,2160,1136,-1831,262,2670,-424
80800,152,141,95,29,33,42,29,39,-5543,-12546,8239,-3528,2409,1500,-1971,-456,2616,-495
80815,143,116,69,23,28,39,29,38,-5894,-12432,8080,-3724,2230,1522,-1816,-922,2244,-367
80838,146,119,103,23,29,40,26,36,-6191,-12320,7952,-3887,1738,1085,-1781,-866,1944,-253
80860,147,173,129,28,26,43,27,36,-6424,-12251,7786,-4057,1451,607,-1851,-487,1865,-472
80875,117,171,132,30,27,41,24,31,-6593,-12236,7579,-4224,1473,358,-1636,-64,1682,-729
80898,114,162,134,30,27,36,21,33,-6654,-12261,7385,-4394,1587,316,-1509,305,1450,-765
80920,107,169,139,31,29,34,20,31,-6669,-12299,7211,-4551,1532,354,-1411,498,1200,-643
80935,102,190,121,31,37,39,21,26,-6649,-12334,7089,-4675,1496,432,-1411,497,888,-398
80958,88,141,100,27,37,35,19,23,-6634,-12336,7040,-4764,1585,634,-1380,262,603,-27
80980,105,131,98,31,40,37,18,22,-6624,-12299,7067,-4833,1724,736,-1341,22,375,362
80995,110,129,97,31,40,41,23,26,-6629,-12237,7143,-4874,1782,803,-1327,-221,211,570
81018,123,127,88,33,44,43,23,42,-6643,-12171,7225,-4898,1781,813,-1222,-295,115,561
81040,117,95,90,34,40,41,23,47,-6640,-12132,7281,-4915,1634,822,-1133,-113,62,438
81055,116,96,95,36,45,45,25,50,-6630,-12119,7306,-4924,1542,833,-1068,21,30,261
81078,98,108,140,37,44,49,28,56,-6626,-12117,7317,-4918,1478,890,-935,54,-43,165
81100,94,108,151,39,45,47,24,54,-6629,-12123,7309,-4912,1638,899,-923,75,-43,35
81115,75,101,155,38,44,47,24,44,-6641,-12125,7287,-4921,1839,789,-966,48,45,-81
81138,72,118,170,37,42,44,22,39,-6668,-12122,7260,-4934,1839,751,-1004,-22,138,-127
81160,66,116,168,35,35,37,21,36,-6704,-12109,7236,-4953,1739,713,-1024,-93,234,-93
81175,50,100,139,30,34,30,19,24,-6740,-12088,7221,-4976,1669,633,-1025,-143,275,-44
81198,30,98,125,28,30,28,22,20,-6768,-12065,7213,-5004,1635,628,-1008,-107,264,16
81220,30,93,118,32,30,26,22,20,-6781,-12052,7208,-5026,1665,657,-1065,-51,202,23
81235,30,58,84,33,27,25,24,25,-6790,-12043,7210,-5030,1727,700,-1157,-89,128,17
81258,42,73,73,32,26,26,23,30,-6799,-12034,7229,-5016,1734,716,-1196,-165,23,48
81280,43,73,40,32,25,26,22,30,-6792,-12024,7268,-4992,1615,673,-1092,-152,-117,141
81295,42,72,34,31,27,24,20,31,-6770,-12016,7329,-4953,1572,645,-1144,-167,-244,216
81318,45,84,42,27,27,32,19,33,-6754,-11996,7409,-4902,1609,687,-1162,-275,-310,298
81340,77,137,65,31,31,36,19,55,-6739,-11972,7497,-4849,1656,793,-1079,-263,-379,377
81355,111,141,68,35,34,37,22,59,-6690,-11974,7576,-4786,1699,769,-1097,-75,-547,289
81378,121,142,70,37,38,37,24,61,-6625,-12003,7641,-4701,1566,722,-1090,16,-674,141
81400,197,176,78,38,40,37,24,62,-6563,-12041,7691,-4608,1522,698,-1011,37,-712,27
81415,222,202,89,39,39,36,25,62,-6502,-12092,7718,-4515,1501,754,-968,124,-714,-81
81438,223,190,82,37,37,37,24,43,-6418,-12161,7732,-4428,1519,734,-1018,286,-741,-152
81460,209,180,82,40,40,37,21,35,-6339,-12227,7739,-4343,1588,702,-985,277,-754,-202
81483,219,178,82,38,38,39,22,33,-6265,-12286,7743,-4277,1688,703,-1015,292,-679,-187
81498,186,150,76,38,35,40,26,48,-6195,-12335,7739,-4245,1752,655,-1041,346,-512,-155
81520,164,158,69,40,38,52,34,57,-6140,-12369,7734,-4238,1760,615,-1054,304,-351,-108
81543,153,142,59,45,49,58,39,65,-6097,-12392,7724,-4250,1805,585,-1179,257,-175,-91
81558,152,141,52,40,46,57,38,66,-6036,-12420,7713,-4275,1749,520,-1273,347,-128,-71
81580,134,140,51,40,45,58,38,67,-5951,-12454,7715,-4292,1548,545,-1302,431,-184,39
81603,91,137,50,40,45,57,37,56,-5863,-12478,7743,-4293,1483,538,-1286,357,-294,162
81618,70,69,30,36,41,44,31,45,-5796,-12480,7800,-4275,1546,537,-1303,132,-369,273
81640,70,51,34,72,67,34,26,30,-5753,-12458,7874,-4262,1920,566,-1489,-41,-334,336
81663,77,51,44,87,79,54,34,33,-5758,-12422,7931,-4255,2426,675,-1636,-216,-242,216
81678,66,48,54,101,97,66,44,39,-5762,-12368,8007,-4262,2270,648,-1533,-231,-186,389
81700,67,42,62,115,116,89,49,39,-5699,-12300,8148,-4277,1603,478,-1390,-68,-271,867
81723,72,39,63,119,124,97,50,37,-5641,-12215,8321,-4265,1602,522,-1485,-232,-375,1015
81738,76,42,67,109,113,97,55,47,-5687,-12096,8485,-4219,2023,753,-1642,-754,-234,899
81760,66,57,79,177,208,93,52,47,-5807,-11960,8634,-4140,2064,780,-1584,-1153,-131,722
81783,80,60,72,195,214,88,43,42,-5941,-11851,8761,-3995,1580,877,-1336,-1270,-286,489
81798,77,61,66,198,264,73,38,44,-6063,-11761,8879,-3810,943,1000,-968,-1201,-425,464
81820,85,62,66,203,277,65,39,45,-6124,-11713,8977,-3628,654,789,-802,-886,-591,289
81843,104,62,65,208,290,76,40,41,-6134,-11713,9029,-3479,681,525,-889,-529,-561,-26
81858,118,84,68,148,236,76,43,41,-6155,-11723,9030,-3406,1106,452,-882,-281,-279,-209
81888,112,86,71,115,236,72,43,41,-6159,-11763,8976,-3404,1254,366,-835,105,-39,-423
81903,132,136,113,100,169,69,43,47,-6136,-11811,8892,-3496,1509,399,-969,547,277,-365
81918,135,154,115,90,142,68,39,47,-6129,-11849,8792,-3631,1419,539,-1044,648,620,-253
81940,163,160,115,64,108,54,32,45,-6117,-11891,8692,-3755,1546,569,-1275,617,608,-281
81963,166,164,124,61,89,46,26,42,-6114,-11926,8607,-3843,1541,568,-1428,415,539,-284
81978,171,226,145,64,49,56,30,41,-6092,-11959,8549,-3903,1375,586,-1445,375,379,-161
82000,181,211,141,59,46,54,32,38,-6029,-11994,8534,-3927,1190,634,-1446,402,78,33
82023,180,206,148,54,43,57,34,41,-5929,-12027,8568,-3904,944,599,-1386,352,-268,226
82038,198,232,164,60,43,64,35,38,-5807,-12046,8638,-3875,808,479,-1202,352,-452,409
82060,365,335,221,72,54,73,41,57,-5674,-12051,8722,-3865,737,405,-1000,415,-479,539
82083,499,464,278,73,82,116,47,78,-5507,-12069,8807,-3858,572,398,-880,619,-580,580
82098,626,564,446,86,96,135,56,91,-5296,-12123,8871,-3840,421,327,-635,875,-823,420
82129,673,584,455,88,105,141,62,121,-5061,-12232,8864,-3827,948,175,-591,1141,-1036,-119
82143,671,595,471,87,110,149,64,129,-4902,-12426,8669,-3855,2309,599,-1718,1377,-547,-1188
82158,628,593,484,87,115,159,64,134,-4855,-12638,8375,-3874,3497,2108,-1782,1145,-28,-1692
82180,546,528,456,83,100,134,59,131,-4992,-12764,8078,-3919,3590,2369,-1709,835,124,-1341
82203,409,425,289,66,86,114,50,122,-5128,-12839,7872,-3917,2123,1535,-1734,141,450,-1030
82218,336,410,277,61,75,103,41,94,-5312,-12929,7611,-3889,921,680,-1661,-377,778,-1654
82240,318,387,243,54,68,88,37,84,-5517,-13065,7237,-3868,941,-172,-1455,-295,990,-2373
82263,293,312,150,38,50,55,31,63,-5678,-13142,6959,-3880,1625,-458,-1217,-276,840,-1739
82278,300,226,141,33,62,55,32,50,-5737,-13128,6859,-4019,1767,-510,-1290,-268,849,-757
82300,272,223,146,39,69,62,34,52,-5749,-13066,6844,-4223,1780,-399,-1228,-46,921,-28
82323,262,199,170,41,77,71,33,47,-5730,-12990,6870,-4437,1738,-80,-1420,111,951,398
82338,293,266,201,50,84,80,38,52,-5714,-12924,6887,-4618,1661,399,-1483,214,890,485
82360,297,324,253,58,86,90,41,65,-5735,-12860,6881,-4779,1637,759,-1442,171,940,445
82383,262,350,255,60,75,81,40,63,-5784,-12795,6856,-4928,1595,874,-1351,100,994,364
82405,264,363,294,63,69,82,39,62,-5855,-12729,6817,-5067,1798,935,-1287,27,965,244
82420,274,363,284,65,69,75,39,63,-5935,-12666,6774,-5188,1913,1015,-1361,-39,929,189
82443,241,311,267,60,64,70,35,63,-6013,-12612,6718,-5302,1822,1027,-1326,-6,948,127
82465,185,253,226,51,59,58,32,51,-6071,-12573,6658,-5403,1773,892,-1380,31,876,38
82480,170,207,217,50,61,57,26,50,-6117,-12536,6610,-5495,1736,736,-1313,9,783,26
82503,154,176,168,42,61,51,25,51,-6139,-12499,6582,-5588,1694,532,-1214,36,667,77
82534,139,204,189,43,48,49,24,60,-6144,-12451,6589,-5681,1738,425,-1135,2,549,239
82540,202,311,186,44,54,60,30,77,-6145,-12395,6625,-5759,1744,536,-1110,-53,425,418
82563,192,307,181,44,58,62,30,75,-6126,-12346,6668,-5835,1722,633,-991,80,300,524
82594,206,309,241,44,64,64,30,76,-6126,-12302,6704,-5887,1832,707,-968,-8,213,420
82600,213,317,242,47,65,66,31,76,-6134,-12264,6723,-5934,1811,636,-914,-15,224,284
82623,217,313,241,45,65,70,29,71,-6135,-12237,6723,-5989,1800,566,-914,76,267,184
82645,170,219,244,51,57,59,28,54,-6136,-12219,6713,-6037,1824,634,-944,112,255,138
82660,170,210,240,50,55,57,28,58,-6130,-12210,6702,-6073,1777,657,-981,132,205,122
82683,156,208,191,48,48,54,28,55,-6137,-12202,6695,-6090,1720,687,-990,41,168,94
82705,147,203,192,44,44,48,27,50,-6142,-12192,6698,-6102,1742,567,-959,-16,105,78
82720,154,197,178,46,49,47,28,45,-6142,-12183,6702,-6114,1818,509,-948,-8,67,49
82743,130,196,178,49,58,47,26,38,-6133,-12182,6705,-6123,1850,478,-926,36,8,25
82766,132,199,186,56,60,48,26,35,-6117,-12186,6709,-6126,1876,485,-1019,51,-15,20
82780,128,197,184,57,57,50,27,34,-6113,-12181,6723,-6123,1849,491,-1008,-49,-18,52
82803,140,216,203,57,58,55,26,39,-6115,-12174,6744,-6114,1857,528,-1012,-96,-33,78
82825,147,207,219,56,55,51,29,45,-6111,-12167,6768,-6103,1811,534,-955,-73,-80,109
82840,146,194,225,43,44,47,27,43,-6106,-12166,6791,-6087,1778,541,-911,-59,-131,91
82863,147,195,229,32,39,45,25,42,-6104,-12165,6805,-6075,1830,540,-898,-36,-111,48
82885,153,239,244,32,39,45,25,47,-6099,-12169,6806,-6070,1850,568,-879,35,-81,15
82900,137,219,230,30,38,39,26,43,-6097,-12174,6801,-6068,1836,567,-908,42,-40,-14
82923,94,210,205,29,40,40,21,37,-6106,-12173,6797,-6065,1834,576,-914,-20,1,-15
82945,113,239,222,28,40,43,22,38,-6119,-12167,6799,-6062,1837,529,-947,-77,21,-15
82960,104,230,208,28,41,43,23,35,-6131,-12158,6808,-6057,1805,514,-955,-102,14,22
82983,91,170,176,24,47,41,22,30,-6138,-12149,6825,-6050,1833,516,-996,-109,-10,59
83005,86,155,149,24,47,42,23,30,-6146,-12140,6849,-6034,1874,565,-1031,-140,-56,79
83020,81,146,144,22,45,40,24,29,-6157,-12130,6879,-6006,1931,626,-1093,-189,-91,98
83043,30,77,97,26,45,36,28,25,-6176,-12111,6926,-5973,1943,650,-1113,-287,-112,173
83065,20,68,91,27,40,31,29,25,-6205,-12069,6993,-5948,2057,624,-1154,-405,-52,274
83080,22,78,90,44,45,38,30,23,-6240,-12008,7084,-5928,2095,543,-1144,-530,-43,384
83103,30,86,93,57,64,67,39,41,-6263,-11932,7182,-5938,2151,419,-1051,-466,12,476
83126,40,94,101,73,83,77,43,47,-6259,-11838,7288,-6001,2115,361,-938,-274,140,714
83148,42,92,79,100,135,88,44,48,-6232,-11733,7395,-6105,1919,188,-776,-117,257,840
83163,50,105,90,138,155,105,53,52,-6237,-11596,7479,-6256,2088,220,-914,-153,690,885
83185,79,111,105,164,227,159,82,71,-6277,-11440,7531,-6440,2375,271,-890,-159,971,819
83208,105,111,131,172,261,168,85,67,-6302,-11294,7549,-6648,2399,137,-631,55,984,698
83223,109,119,134,175,280,167,84,66,-6299,-11212,7536,-6803,1975,174,-794,239,813,433
83245,122,120,149,181,284,197,95,71,-6305,-11195,7484,-6882,1691,393,-809,276,551,67
83260,143,108,149,219,365,193,91,70,-6340,-11213,7449,-6859,1361,543,-1060,-52,315,-145
83283,138,94,142,202,334,152,66,51,-6405,-11227,7472,-6749,1457,691,-1244,-528,8,-119
83305,118,86,121,198,311,135,62,50,-6439,-11267,7570,-6538,1648,662,-1246,-790,-742,-91
83321,114,71,128,211,305,143,62,50,-6384,-11345,7744,-6246,1808,463,-1320,-790,-1573,-6
83343,100,70,136,225,303,97,44,62,-6303,-11415,7948,-5938,1924,307,-1296,-797,-1965,91
83365,75,71,135,173,201,106,50,78,-6158,-11527,8167,-5563,1732,176,-1020,-669,-2557,14
83388,61,75,136,185,217,119,55,82,-6028,-11617,8343,-5249,2069,213,-1053,-525,-2167,-4
83403,82,78,136,236,248,129,62,84,-5882,-11714,8527,-4892,1954,169,-931,-575,-2433,-54
83425,83,78,125,276,298,149,75,88,-5675,-11812,8719,-4549,2010,222,-933,-306,-2598,106
83448,91,110,116,266,332,169,84,81,-5453,-11918,8885,-4211,1811,433,-1026,-149,-2566,35
83463,88,132,129,267,335,171,82,64,-5227,-12020,9022,-3906,1357,579,-1094,4,-2352,27
83487,98,142,136,280,325,174,85,65,-5056,-12097,9119,-3657,1411,468,-1234,-48,-1851,-55
83508,85,143,163,288,417,203,95,67,-4955,-12165,9187,-3391,1338,524,-1239,-363,-1638,-256
83523,89,149,171,252,392,201,103,82,-4956,-12177,9246,-3181,1572,504,-1212,-659,-1204,-175
83553,91,134,185,321,419,199,102,80,-4954,-12155,9333,-3009,1455,204,-1277,-750,-1019,24
83568,124,116,199,330,517,281,142,116,-4913,-12106,9454,-2892,1196,244,-1294,-480,-836,423
83583,127,111,212,323,538,294,144,118,-4902,-12052,9557,-2797,1106,548,-1233,-385,-603,490
83605,127,117,201,291,533,278,141,119,-4947,-12006,9616,-2711,1307,673,-1301,-494,-387,248
83628,147,185,221,293,609,290,139,108,-5005,-11978,9638,-2652,1343,574,-1320,-447,-188,29
83643,162,216,216,322,731,301,147,116,-5041,-11971,9625,-2662,1292,555,-1368,-74,96,-51
83666,136,219,214,337,766,250,120,82,-5056,-11978,9595,-2710,1221,516,-1422,144,255,-78
83688,129,224,226,374,851,252,119,82,-5057,-11985,9564,-2785,1125,391,-1456,244,382,-45
83703,129,225,228,434,835,271,122,83,-5048,-11979,9547,-2884,1202,297,-1557,279,440,68
83726,113,194,269,505,922,386,172,104,-5046,-11979,9523,-2967,1336,409,-1651,252,394,11
83748,94,170,273,474,855,374,164,95,-5040,-11977,9506,-3037,1347,456,-1698,232,332,48
83763,89,190,270,472,775,358,159,94,-5026,-11980,9494,-3087,1348,484,-1694,217,215,38
83786,95,192,250,457,673,351,162,93,-5013,-11995,9474,-3110,1404,560,-1702,192,92,-61
83808,96,201,255,418,650,341,156,87,-5004,-12017,9450,-3114,1392,558,-1597,139,-10,-132
83823,97,202,182,358,519,228,104,66,-4995,-12035,9425,-3134,1399,464,-1570,150,48,-132
83846,88,209,163,323,536,241,106,64,-4996,-12053,9391,-3165,1430,412,-1485,144,109,-180
83868,89,189,145,305,586,254,108,63,-5004,-12063,9357,-3215,1487,409,-1487,166,196,-140
83883,84,178,139,274,582,245,98,53,-5020,-12071,9321,-3267,1444,426,-1470,136,257,-130
83906,85,192,134,229,563,226,90,51,-5036,-12071,9290,-3327,1363,399,-1465,145,324,-63
83928,82,173,142,153,463,160,63,39,-5044,-12067,9269,-3389,1257,365,-1490,146,357,1
83943,92,159,172,114,316,122,50,33,-5040,-12064,9258,-3434,1242,320,-1541,110,256,16
83966,99,166,213,85,141,71,35,35,-5035,-12076,9235,-3461,1253,384,-1463,131,153,-96
83988,111,232,286,65,78,49,36,38,-5024,-12098,9205,-3482,1114,381,-1244,190,84,-132
84003,151,238,280,60,72,53,33,44,-5009,-12083,9206,-3551,987,236,-1008,229,230,159
84027,176,302,279,49,68,54,34,47,-5019,-12020,9228,-3690,1081,254,-974,256,583,492
84048,192,317,258,39,57,62,35,54,-5074,-11956,9201,-3886,1420,380,-1012,358,951,359
84063,223,357,254,38,55,71,30,57,-5187,-11894,9108,-4137,1451,446,-932,419,1454,129
84086,224,324,170,41,50,70,29,56,-5301,-11830,8991,-4422,1401,412,-960,487,1785,80
84117,204,309,184,40,49,73,29,54,-5427,-11763,8866,-4693,1305,325,-962,398,1797,3
84123,187,264,226,55,56,89,30,49,-5501,-11687,8785,-4943,1168,68,-818,400,1474,180
84146,212,264,247,59,63,99,30,43,-5489,-11619,8726,-5213,1569,-57,-822,748,1142,353
84168,182,203,217,58,65,99,31,35,-5475,-11607,8606,-5449,2633,347,-1792,935,1146,5
84183,177,200,221,54,62,97,30,42,-5561,-11595,8454,-5622,2887,908,-1702,579,1175,-184
84206,190,298,235,58,62,93,31,49,-5622,-11591,8343,-5734,2872,816,-1658,408,783,-161
84228,189,286,192,47,56,80,28,61,-5663,-11622,8236,-5787,2320,656,-1621,326,573,-353
84243,143,267,188,46,49,61,26,70,-5716,-11681,8128,-5767,1730,556,-1644,83,447,-621
84266,152,287,203,46,47,53,29,71,-5782,-11742,8029,-5716,1516,431,-1393,-93,278,-731
84288,156,295,228,51,57,65,29,69,-5837,-11792,7952,-5667,1618,215,-1150,-156,90,-705
84311,135,192,227,54,57,71,30,65,-5847,-11851,7892,-5615,1655,133,-1136,-23,-116,-633
84326,130,200,232,54,57,73,33,53,-5831,-11905,7843,-5586,1878,110,-1076,103,-203,-519
84348,126,215,240,58,55,70,32,39,-5820,-11947,7792,-5579,2004,166,-1012,141,-141,-451
84371,157,215,269,68,55,71,30,45,-5799,-11976,7744,-5607,2081,154,-1053,244,-8,-327
84387,213,225,277,78,54,72,35,49,-5782,-11999,7681,-5661,1999,294,-1041,348,172,-254
84408,215,225,264,73,50,66,34,46,-5775,-12018,7614,-5718,1911,413,-1079,346,274,-212
84431,220,228,294,72,52,67,32,46,-5803,-12023,7550,-5765,1824,554,-1045,184,361,-177
84446,227,248,297,70,54,72,35,54,-5857,-12008,7501,-5805,1876,475,-1054,-38,410,-177
84468,196,228,270,66,58,78,33,47,-5911,-11994,7447,-5847,1880,435,-1088,-43,454,-214
84491,124,235,257,51,50,67,28,39,-5962,-11981,7387,-5900,1852,358,-1038,-6,496,-248
84506,119,242,246,51,54,68,30,40,-6006,-11969,7321,-5961,1896,390,-1028,62,520,-241
84528,116,249,223,56,60,70,31,41,-6042,-11954,7262,-6025,1920,431,-1049,89,513,-165
84551,106,226,213,51,60,71,32,36,-6061,-11935,7221,-6095,1955,433,-1106,121,502,-35
84566,117,243,203,45,54,61,34,51,-6075,-11915,7186,-6160,1913,471,-1068,125,460,15
84588,117,209,179,45,54,60,34,53,-6086,-11905,7152,-6208,1799,540,-1081,128,402,13
84611,115,193,176,43,50,54,32,53,-6102,-11897,7127,-6236,1794,496,-1085,34,317,-23
84626,114,182,175,43,47,50,33,57,-6122,-11883,7117,-6254,1799,402,-979,-65,218,-27
84648,118,186,153,44,46,47,31,57,-6130,-11868,7118,-6274,1824,396,-940,-33,156,49
84671,106,160,155,41,46,48,28,45,-6120,-11865,7113,-6295,1862,440,-945,92,97,54
84686,98,156,151,39,45,47,26,41,-6113,-11858,7118,-6308,1930,474,-978,36,66,88
84708,96,162,152,41,45,49,25,41,-6122,-11841,7132,-6316,1948,443,-976,-90,79,93
84731,81,158,136,35,39,41,22,34,-6134,-11816,7159,-6321,1945,381,-990,-168,75,125
84753,54,128,125,31,34,33,20,25,-6132,-11795,7199,-6317,1886,365,-1025,-161,-1,177
84768,52,119,116,30,37,33,21,24,-6123,-11777,7258,-6293,1870,393,-1075,-213,-117,238
84791,64,163,139,35,40,34,24,29,-6112,-11752,7336,-6258,1821,359,-1072,-291,-187,302
84806,94,221,180,37,43,41,26,37,-6092,-11734,7416,-6218,1770,402,-1038,-241,-263,337
84828,93,240,223,38,42,43,25,38,-6056,-11748,7470,-6163,1673,505,-1013,-62,-374,216
84859,97,241,231,39,47,46,24,39,-6031,-11773,7508,-6092,1682,518,-996,-85,-421,71
84865,99,259,230,41,46,47,25,39,-6026,-11796,7533,-6021,1667,509,-851,-129,-411,-29
84888,118,256,220,38,44,48,24,45,-6025,-11819,7540,-5967,1733,483,-796,-63,-351,-99
84911,97,212,195,36,43,40,23,37,-6023,-11843,7532,-5933,1864,449,-776,17,-286,-148
84926,96,176,128,34,47,43,24,36,-6036,-11858,7519,-5905,1960,442,-870,-50,-179,-186
84948,91,186,108,34,42,42,26,34,-6060,-11862,7509,-5884,1887,434,-895,-114,-72,-151
84970,88,168,108,33,42,40,24,35,-6088,-11854,7509,-5872,1790,439,-926,-156,14,-59
84986,46,134,97,30,40,40,23,22,-6122,-11831,7526,-5860,1803,453,-957,-246,38,39
85008,43,117,69,29,37,40,21,24,-6159,-11799,7566,-5835,1831,437,-1053,-370,7,111
85030,35,101,61,24,30,34,20,24,-6202,-11751,7627,-5807,1978,410,-1213,-508,37,188
85046,52,73,53,25,29,30,18,23,-6252,-11689,7702,-5781,2243,323,-1302,-620,39,198
85068,71,51,51,23,24,27,17,24,-6261,-11639,7795,-5746,2041,168,-1169,-510,-182,249
85092,83,83,70,31,25,26,15,26,-6210,-11610,7897,-5721,1718,168,-1039,-199,-348,423
85105,108,109,119,35,25,26,27,32,-6118,-11609,7991,-5692,1760,249,-1147,45,-489,427
85129,125,139,126,35,23,25,30,46,-6076,-11629,8076,-5574,2085,479,-1462,-302,-682,119
85159,138,145,128,38,24,32,33,48,-6090,-11651,8151,-5403,2295,630,-1376,-602,-844,-104
85166,190,148,128,40,28,42,36,52,-6080,-11705,8218,-5189,2075,470,-1385,-593,-1089,-342
85188,260,145,147,37,36,53,40,56,-6011,-11786,8291,-4966,1580,397,-1384,-359,-1240,-290
85219,280,153,132,34,39,59,36,55,-5911,-11890,8367,-4705,1641,425,-1570,-313,-1510,-386
85225,293,179,133,36,41,60,34,47,-5827,-11981,8468,-4388,1563,678,-1673,-547,-1831,-336
85248,318,194,142,38,46,64,36,70,-5748,-12064,8584,-4023,1729,842,-1719,-726,-2057,-351
85270,366,278,184,49,50,66,36,78,-5662,-12157,8710,-3568,1691,885,-1893,-963,-2479,-510
85293,358,375,183,53,55,73,39,82,-5578,-12237,8852,-3039,1753,966,-1839,-1233,-2826,-560
85308,444,405,194,76,75,113,80,153,-5467,-12315,8997,-2442,1706,1140,-1859,-1318,-3207,-636
85341,546,440,198,88,103,187,110,389,-5333,-12411,9102,-1769,1871,1252,-2033,-1384,-3575,-1005
85353,600,557,242,96,121,215,118,428,-5165,-12522,9168,-964,1861,1300,-2290,-1625,-4190,-1455
85368,740,599,276,107,133,250,141,446,-4900,-12676,9152,-98,1892,1308,-2561,-1311,-4654,-2049
85390,859,732,405,151,173,310,167,459,-4419,-12866,9098,773,1807,1664,-2665,-302,-5331,-2340
85413,1029,822,461,145,187,325,161,456,-3824,-12978,9093,1648,459,1220,-2272,57,-5688,-1864
85428,1062,883,497,148,190,328,157,557,-3336,-13029,8987,2606,783,1439,-2151,-778,-5711,-2219
85450,1119,1013,492,160,207,378,195,741,-2838,-13096,8778,3442,1575,790,-2087,-511,-5184,-2658
85473,1061,1025,494,187,251,419,256,951,-2348,-12997,8731,4214,1028,212,-1349,-343,-5159,-1318
85504,1026,946,450,162,229,397,329,1065,-1930,-12750,8853,4876,-68,-1413,-1313,-385,-4698,198
85510,844,874,394,169,215,393,605,1199,-1549,-12365,9149,5426,-657,-2218,-1005,-69,-4384,1608
85533,760,799,352,162,205,392,664,1199,-1258,-11850,9622,5817,-516,-1494,-579,418,-3760,2978
85548,617,531,329,146,181,338,658,1153,-1112,-11280,10116,6133,-267,-482,719,291,-3038,3500
85570,522,416,276,98,165,279,665,1017,-1161,-10763,10546,6326,508,-159,1803,-27,-1763,3443
85633,369,318,153,177,342,332,650,907,-1417,-10291,11044,6209,1317,260,2399,596,137,4010
85635,269,258,112,208,448,343,407,718,-1935,-10009,11551,5575,2246,1538,2141,1512,3344,4260
85639,164,234,102,210,555,348,314,545,-2665,-10014,11876,4473,2346,2632,1099,2479,6462,3220
85653,137,222,208,226,579,359,305,372,-3485,-10185,11978,3012,2126,2571,-425,3710,8309,2089
85668,127,394,253,236,639,419,238,254,-4173,-10417,11859,1367,2533,1847,-1666,4627,8740,1199
85690,168,382,327,182,574,366,166,191,-4774,-10698,11451,-261,3574,887,-1959,4680,8708,-124
85713,223,406,426,154,527,382,156,166,-5371,-11106,10661,-1610,4002,1252,-2332,3852,8562,-2347
85728,384,456,529,169,422,360,132,141,-6029,-11558,9593,-2544,3947,2000,-2865,2335,7686,-4371
85750,439,538,586,161,400,349,133,126,-6813,-11866,8492,-3022,4874,2862,-3791,57,6478,-5074
85773,473,646,577,150,299,262,126,147,-7708,-11987,7432,-3182,4220,2187,-4248,-1791,5603,-5215
85788,519,787,624,154,305,277,130,171,-8390,-12031,6521,-3282,3240,1079,-3920,-1437,4505,-4327
85810,669,866,616,163,246,276,154,261,-8747,-12190,5759,-3190,1926,460,-3558,-652,2664,-4283
85833,734,938,719,160,265,282,155,320,-8903,-12465,5148,-2706,500,547,-3935,-115,-179,-4704
85848,781,1003,747,180,277,301,158,346,-8690,-12848,4890,-1985,1042,179,-2773,777,-2878,-3876
85870,854,977,775,207,249,312,158,392,-8294,-13252,4755,-1193,1807,862,-2293,1531,-3995,-3501
85893,995,989,798,224,251,352,180,474,-7690,-13689,4669,-363,1734,1247,-1952,2559,-4725,-3352
85909,1056,1054,952,276,330,411,191,726,-7071,-14044,4577,533,961,1032,-1603,2338,-5030,-3359
85933,1077,1133,913,302,342,508,214,899,-6412,-14325,4489,1411,638,1094,-1480,2411,-5033,-3166
85961,1124,1115,877,303,342,511,229,977,-5744,-14495,4519,2220,744,597,-719,2412,-5051,-2288
85968,1087,1154,990,298,344,519,231,1021,-5159,-14548,4706,2835,704,462,-214,2228,-4349,-881
85999,1008,1112,1001,291,323,496,219,1039,-4749,-14513,5008,3192,860,-196,-161,1661,-3096,464
86013,997,1147,943,246,264,461,229,1038,-4524,-14430,5352,3333,347,-478,-383,1039,-1775,1353
86035,997,1051,993,204,213,348,208,914,-4435,-14269,5807,3385,-458,-5,-349,581,-1270,2389
86052,904,982,975,180,186,335,186,828,-4451,-14023,6374,3368,-461,503,-655,231,-994,3331
86074,872,851,835,151,164,301,172,752,-4545,-13711,6997,3293,119,1486,-458,72,-758,3857
86088,807,778,742,129,155,274,159,678,-4660,-13416,7585,3035,911,1299,-478,379,149,3909
86110,720,652,623,98,122,222,102,379,-4762,-13153,8127,2590,1336,1138,-712,895,1033,3869
86133,568,571,462,99,120,208,75,272,-4837,-12889,8646,2040,789,2242,-720,1408,1538,3999
86148,605,617,453,86,100,178,78,266,-4890,-12722,8966,1511,903,2828,-857,1520,1772,2806
86170,624,651,473,96,110,194,93,281,-5025,-12682,9018,1018,882,2752,-911,1114,2387,1261
86193,637,771,491,98,114,221,92,293,-5239,-12693,8916,615,1214,2238,-1816,411,2522,288
86218,511,675,454,91,103,187,87,255,-5424,-12791,8681,230,1525,1665,-2456,494,2621,-628
86219,511,675,454,91,103,187,87,255,-5424,-12791,8681,230,1525,1665,-2456,494,2621,-628
86220,1124,1115,877,303,342,511,229,977,-5744,-14495,4519,2220,744,597,-719,2412,-5051,-2288
86226,1087,1154,990,298,344,519,231,1021,-5159,-14548,4706,2835,704,462,-214,2228,-4349,-881
86232,492,661,381,81,98,179,83,258,-5478,-12954,8403,-121,792,1103,-2816,1003,2277,-1044
86253,409,597,346,77,95,179,76,238,-5432,-13068,8249,-338,397,924,-2523,733,1451,-516
86275,372,533,304,62,82,154,50,194,-5425,-13092,8211,-436,416,1040,-2269,175,775,42
86290,282,319,267,55,65,90,44,144,-5414,-13057,8270,-511,676,792,-1877,15,306,488
86313,242,239,217,35,51,66,35,134,-5380,-13000,8373,-625,825,587,-1599,181,223,748
86335,215,205,141,41,55,79,43,122,-5300,-12950,8485,-816,1042,591,-1492,663,311,877
86350,224,241,177,57,59,82,62,130,-5191,-12907,8590,-1065,1176,728,-1508,1056,455,963
86373,239,245,168,58,58,81,65,132,-4998,-12877,8704,-1372,1222,586,-1802,1530,512,1089
86395,261,269,145,60,62,83,69,130,-4771,-12859,8811,-1640,1132,964,-2007,1720,334,1099
86418,530,450,217,80,110,157,133,271,-4581,-12840,8893,-1874,1248,920,-2055,1526,316,931
86433,779,507,240,88,113,228,199,385,-4403,-12836,8955,-2024,970,773,-2306,1173,200,685
86457,816,500,240,94,119,260,214,413,-4126,-12899,9009,-1968,461,545,-3029,908,-651,233
86487,900,563,282,110,132,286,226,466,-3649,-13035,9045,-1848,583,813,-3631,1885,-2001,-79
86493,963,592,321,117,134,291,229,484,-3061,-13093,9215,-1650,1266,698,-2899,1987,-2959,706
86524,904,492,286,103,101,266,203,429,-2513,-13135,9360,-1409,1468,348,-2477,1647,-3060,555
86530,778,604,330,118,101,226,152,336,-1939,-13200,9429,-1239,1385,734,-2259,2122,-2793,243
86555,813,681,424,133,122,245,145,387,-1466,-13241,9475,-1090,1111,852,-1949,1753,-2333,188
86575,738,648,404,122,112,228,127,338,-1197,-13280,9480,-885,982,933,-1741,678,-1908,-90
86592,696,644,393,121,109,232,124,358,-1168,-13308,9460,-697,848,490,-1717,-254,-1263,-238
86613,756,718,422,131,125,255,133,461,-1247,-13342,9412,-540,593,9,-1939,-931,-618,-435
86636,713,582,380,113,120,247,121,473,-1338,-13390,9338,-398,438,-28,-2538,-1002,-387,-595
86658,635,513,284,94,98,209,104,407,-1447,-13434,9264,-202,506,48,-2751,-1269,-613,-619
86673,635,511,306,98,96,212,102,426,-1540,-13441,9242,-54,627,-659,-2608,-1459,-553,-299
86695,636,516,343,99,105,206,101,431,-1648,-13419,9256,51,497,-824,-2370,-1506,-281,-19
86710,624,666,436,97,117,234,98,495,-1750,-13386,9283,162,297,-490,-2491,-1357,-221,111
86733,592,691,463,94,116,234,97,477,-1859,-13327,9339,406,110,496,-2930,-1384,-720,312
86763,601,696,457,85,109,218,116,499,-1941,-13166,9522,813,-172,1356,-2851,-1670,-1684,1115
86778,615,739,492,86,125,210,186,550,-2021,-12895,9812,1344,429,1068,-2811,-2159,-2444,1843
86801,698,758,528,85,132,214,203,547,-2006,-12575,10115,1995,460,724,-2372,-2209,-3349,1931
86823,630,607,572,89,125,196,195,409,-1792,-12240,10398,2700,226,1071,-1738,-1507,-4247,1717
86830,735,657,589,103,145,230,228,491,-1465,-11976,10587,3282,434,1703,-842,-525,-4028,1018
86861,834,749,614,138,205,323,396,702,-1265,-11896,10585,3645,764,1202,-734,-432,-2413,-200
86892,946,841,605,140,205,344,421,824,-1273,-11876,10537,3839,478,596,-1376,-825,-1178,-383
86893,1037,1000,689,159,206,378,435,895,-1098,-11753,10584,4134,-768,317,-2049,-423,-1993,307
86921,1071,1064,638,184,198,364,442,1003,-788,-11572,10668,4482,-573,1123,-1797,64,-2819,408
86936,1145,1109,673,210,198,388,454,1089,-497,-11404,10714,4831,-315,1501,-1633,-27,-2757,201
86950,1103,1226,711,216,187,458,320,1173,-201,-11334,10694,5057,-400,851,-1397,294,-2110,-377
86973,1093,1384,1016,274,257,582,372,1205,13,-11269,10655,5283,-594,1090,-1399,-28,-1787,-331
86995,1098,1363,1033,293,297,586,501,1294,184,-11163,10634,5542,-705,784,-1606,-333,-1839,-8
87010,1280,1495,1177,343,311,626,527,1323,359,-11033,10650,5756,-934,707,-1333,-79,-1696,219
87033,1235,1543,1261,399,317,634,548,1328,525,-10933,10651,5933,-981,667,-1143,-2,-1399,101
87056,1343,1567,1347,424,325,599,681,1323,644,-10830,10677,6059,-698,461,-912,22,-1103,281
87071,1321,1453,1244,441,303,599,674,1288,702,-10723,10741,6130,-812,794,-1024,180,-669,473
87094,1209,1471,1300,459,277,632,743,1251,713,-10636,10819,6143,-886,1121,-1292,309,-288,466
87115,1032,1425,1257,423,270,635,837,1226,715,-10592,10877,6117,-803,1071,-1431,313,-99,234
87139,1040,1418,1208,377,280,636,1014,1444,704,-10551,10936,6083,-855,1003,-1366,285,30,293
87161,1035,1269,1118,343,259,608,1027,1478,669,-10513,11011,6017,-920,1092,-1520,350,234,375
87176,1033,1254,1200,336,227,525,1092,1519,598,-10507,11074,5919,-819,1204,-1513,370,526,232
87199,1057,1260,1097,288,216,490,996,1460,502,-10524,11126,5799,-884,1265,-1655,330,749,158
87213,1058,1234,1017,274,210,438,901,1396,367,-10565,11176,5638,-688,1165,-1655,300,1037,124
87236,1094,1211,986,253,206,436,679,1135,183,-10622,11217,5455,-685,1333,-1593,292,1380,95
87266,948,1307,1038,266,197,437,521,923,-3,-10713,11236,5236,-745,1143,-1925,226,1562,-30
87273,916,1262,847,191,194,405,257,709,-173,-10796,11237,5056,-668,1270,-1940,167,1337,-126
87311,861,1149,788,185,177,356,196,636,-340,-10886,11224,4882,-535,725,-1588,-18,1358,-114
87318,767,1026,732,184,174,353,187,611,-558,-10968,11235,4647,-468,870,-1444,133,1833,102
87341,539,936,662,168,127,277,114,431,-832,-11066,11240,4352,-291,1169,-1095,202,2304,105
87356,503,751,490,122,99,215,77,269,-1126,-11205,11208,4000,-39,1325,-971,331,2650,-164
87386,405,712,417,107,78,155,61,229,-1435,-11416,11113,3543,434,1014,-1011,581,3178,-624
87393,378,665,408,96,74,153,60,217,-1778,-11647,10983,2999,428,866,-1008,733,3700,-746
87424,336,565,393,83,59,138,52,171,-2213,-11894,10789,2384,601,450,-1739,493,4372,-908
87439,329,469,365,73,61,132,42,155,-2649,-12100,10582,1740,419,915,-1676,617,4509,-778
87463,339,451,372,73,60,121,41,178,-3082,-12278,10341,1117,410,498,-1298,474,4440,-830
87484,343,460,299,59,64,111,34,175,-3489,-12414,10094,525,779,236,-1072,408,4176,-769
87499,333,442,265,54,64,113,30,198,-3738,-12568,9823,-135,1540,-175,-1050,1286,3866,-929
87513,318,425,225,44,56,87,31,192,-3938,-12749,9452,-1023,2232,103,-2832,2259,4835,-1161
87544,314,440,227,42,62,95,34,206,-4146,-12824,9126,-1876,1860,1867,-3023,2174,4777,-548
87567,254,399,169,36,62,91,37,182,-4449,-12919,8662,-2594,1879,1543,-3205,1397,4722,-1464
87573,211,248,124,34,54,83,36,168,-4965,-12971,8142,-3045,2432,1682,-2954,-346,4257,-2186
87604,215,248,133,36,53,78,33,133,-5550,-12888,7739,-3413,2446,1040,-2260,-1301,4004,-1562
87619,220,296,170,38,59,79,38,127,-6069,-12708,7476,-3771,1594,-119,-2032,-1488,3713,-691
87641,226,273,160,35,51,73,35,102,-6424,-12558,7254,-4107,795,-592,-1921,-853,3147,-436
87656,228,269,158,35,56,70,36,93,-6613,-12493,7045,-4361,876,-363,-2095,-168,2258,-527
87679,361,317,163,40,58,77,43,104,-6596,-12501,6944,-4520,1515,176,-2207,207,1348,-301
87701,381,284,140,43,61,71,53,135,-6508,-12502,6956,-4626,1762,434,-2051,318,573,253
87716,375,223,77,37,54,63,51,137,-6336,-12537,7057,-4617,1336,535,-2214,364,-191,569
87746,396,246,155,45,57,65,55,142,-6174,-12595,7209,-4442,1280,996,-2322,29,-1008,558
87753,397,255,173,50,52,66,51,135,-6002,-12632,7419,-4220,1459,974,-1974,-94,-1564,730
87777,276,191,179,45,46,55,46,125,-5801,-12647,7664,-4014,1439,795,-1592,24,-1889,898
87807,207,187,185,44,36,49,36,78,-5573,-12681,7886,-3794,1554,757,-1341,183,-2052,755
87815,201,194,205,48,39,46,32,70,-5346,-12722,8063,-3609,1854,796,-1101,363,-1878,597
87844,151,173,171,47,39,41,26,55,-5209,-12724,8181,-3534,1887,934,-935,471,-1316,585
87859,163,167,155,42,41,42,26,50,-5099,-12720,8256,-3534,1737,858,-726,614,-859,519
87873,166,164,141,42,42,40,28,39,-5062,-12726,8251,-3579,1672,905,-818,538,-269,170
87896,163,147,134,39,43,39,26,36,-5114,-12723,8194,-3643,1547,1045,-968,289,272,-38
87919,176,172,124,36,40,42,27,39,-5251,-12693,8121,-3719,1516,981,-1037,-127,681,-139
87933,177,184,148,35,36,39,24,38,-5425,-12646,8040,-3802,1424,828,-1066,-365,919,-203
87956,153,176,160,41,35,41,26,38,-5575,-12603,7958,-3899,1334,608,-1198,-329,1016,-233
87979,141,169,160,41,32,39,25,38,-5688,-12579,7869,-3991,1187,548,-1302,-185,993,-277
88001,141,181,157,41,35,41,26,39,-5760,-12568,7782,-4094,1071,488,-1228,35,937,-227
88016,141,196,191,40,50,50,26,39,-5772,-12560,7721,-4214,1001,327,-1131,258,787,-54
88039,124,202,210,38,52,61,29,39,-5726,-12553,7694,-4347,950,144,-1091,454,632,143
88053,145,214,204,33,59,67,27,41,-5654,-12545,7684,-4477,1026,169,-1177,527,534,256
88076,154,234,211,38,59,72,30,41,-5601,-12529,7669,-4615,1249,349,-1149,536,556,290
88099,182,280,296,61,67,81,39,55,-5553,-12494,7667,-4766,1523,265,-1041,483,513,354
88122,171,285,292,73,62,81,41,56,-5508,-12441,7685,-4927,1659,309,-1066,452,530,517
88136,174,271,259,76,64,75,40,56,-5448,-12401,7687,-5087,1730,462,-1153,608,525,510
88166,165,285,297,81,71,75,41,58,-5413,-12370,7636,-5275,1969,593,-1082,748,704,322
88189,199,336,357,94,77,81,46,71,-5420,-12342,7532,-5480,2127,571,-1036,705,934,24
88196,218,310,300,82,73,79,42,70,-5458,-12309,7393,-5699,2241,561,-1176,646,1208,-142
88219,219,304,325,73,71,75,40,70,-5538,-12271,7235,-5905,2227,801,-1313,513,1414,-204
88241,265,325,390,75,82,81,39,79,-5665,-12216,7079,-6083,2118,771,-1345,184,1531,-299
88256,261,340,380,71,75,84,42,79,-5799,-12158,6938,-6235,2054,726,-1340,25,1465,-316
88279,236,285,322,60,74,75,34,68,-5916,-12102,6802,-6382,2141,469,-1385,-7,1432,-413
88301,210,273,325,62,76,71,32,65,-6018,-12060,6669,-6506,2274,441,-1424,2,1289,-481
88316,222,258,293,63,87,74,36,73,-6082,-12035,6551,-6612,2158,427,-1394,109,1086,-409
88338,155,217,212,59,79,72,38,68,-6117,-12024,6455,-6693,1961,461,-1319,169,869,-294
88361,156,166,226,65,78,67,35,80,-6139,-12014,6392,-6750,1952,465,-1224,99,631,-186
88375,164,163,242,60,76,75,39,90,-6177,-11983,6372,-6789,2073,639,-1098,-97,475,36
88398,145,157,233,57,71,75,40,87,-6205,-11937,6399,-6820,2139,707,-988,-186,298,298
88420,123,144,258,63,60,75,44,83,-6240,-11870,6457,-6849,1991,503,-858,-363,259,370
88436,126,149,274,64,52,69,42,79,-6280,-11799,6518,-6879,1955,578,-798,-370,262,425
88458,120,132,245,62,52,64,39,63,-6311,-11759,6538,-6900,1872,669,-797,-181,251,256
88480,95,115,262,63,61,64,38,47,-6357,-11740,6538,-6890,1868,628,-806,-225,148,2
88496,98,141,291,67,60,63,35,43,-6420,-11730,6539,-6847,1818,618,-775,-352,38,-135
88518,83,157,256,60,55,54,28,32,-6462,-11732,6551,-6792,1732,527,-797,-319,-92,-131
88540,72,155,226,58,65,60,32,33,-6473,-11740,6598,-6722,1627,552,-806,-290,-289,56
88556,72,155,227,56,76,76,36,34,-6474,-11750,6678,-6623,1731,646,-863,-376,-510,169
88578,71,156,203,56,68,71,33,37,-6494,-11741,6773,-6525,1719,519,-691,-525,-544,170
88600,69,124,149,54,68,69,32,35,-6526,-11714,6842,-6469,1665,345,-553,-474,-313,98
88616,61,74,139,52,71,72,33,38,-6540,-11690,6888,-6448,1838,262,-562,-277,-200,48
88638,52,75,148,52,64,66,31,40,-6546,-11674,6907,-6451,1980,356,-560,-95,-106,23
88661,49,84,154,77,56,61,34,41,-6555,-11651,6918,-6472,2004,427,-633,-63,35,76
88675,48,86,174,77,59,62,39,38,-6584,-11606,6927,-6513,1974,372,-644,-143,240,101
88698,50,108,201,75,58,61,40,41,-6618,-11547,6932,-6578,1856,393,-604,-125,399,196
88720,49,112,213,76,56,60,39,36,-6642,-11505,6917,-6643,1855,547,-707,13,446,174
88743,49,105,210,76,57,64,39,31,-6672,-11471,6897,-6692,1808,550,-747,-26,426,93
88758,51,99,193,51,53,53,35,32,-6713,-11439,6885,-6717,1857,544,-787,-149,357,35
88780,46,96,157,49,57,51,30,31,-6750,-11416,6877,-6729,1885,502,-760,-159,250,-20
88795,37,74,143,57,71,60,31,31,-6774,-11399,6873,-6737,1940,459,-764,-119,182,-23
88818,34,78,129,61,84,70,33,33,-6784,-11377,6885,-6753,1938,393,-716,-105,132,68
88840,41,104,151,58,83,68,34,39,-6794,-11337,6915,-6777,1977,460,-656,-146,130,230
88855,41,116,188,60,86,66,33,39,-6790,-11302,6943,-6812,1941,508,-626,-39,128,305
88878,42,111,195,57,93,70,34,36,-6792,-11271,6961,-6844,1943,508,-696,-42,185,240
88900,40,111,192,48,89,61,32,34,-6812,-11244,6970,-6858,1868,452,-640,-124,158,95
88915,68,175,269,96,88,64,29,35,-6845,-11212,6966,-6882,1925,465,-587,-125,238,50
88938,66,172,266,115,90,68,26,28,-6877,-11183,6954,-6909,1877,511,-493,-79,223,50
88960,68,162,239,114,85,66,25,25,-6889,-11172,6924,-6945,1850,517,-543,102,251,17
88975,68,164,234,113,72,61,26,24,-6898,-11171,6893,-6969,1868,522,-628,101,217,-36
88998,75,168,224,115,67,63,26,24,-6912,-11175,6864,-6978,1841,510,-649,47,175,-92
89020,78,105,142,85,58,51,26,37,-6920,-11187,6839,-6976,1766,473,-643,46,98,-119
89043,78,94,154,60,54,41,26,41,-6907,-11212,6821,-6965,1724,463,-618,124,-40,-94
89058,74,96,155,60,61,45,28,42,-6881,-11244,6820,-6941,1768,454,-669,112,-163,-60
89080,74,116,164,63,66,54,28,42,-6856,-11269,6832,-6913,1840,463,-626,55,-235,-7
89103,77,117,203,65,67,52,26,45,-6839,-11286,6847,-6887,1965,472,-603,11,-228,-5
89118,52,112,218,58,64,55,25,33,-6827,-11296,6852,-6878,2022,488,-544,50,-155,1
89140,50,111,205,61,65,55,25,28,-6815,-11306,6845,-6880,1993,503,-584,105,-64,-4
89163,53,123,204,60,64,56,24,27,-6812,-11313,6829,-6887,1912,462,-552,85,7,-53
89178,56,133,218,58,63,47,22,31,-6817,-11315,6812,-6895,1930,470,-600,53,62,-63
89200,42,140,197,52,59,48,23,25,-6814,-11324,6797,-6898,1874,502,-650,75,41,-43
89223,39,135,158,46,59,42,25,26,-6812,-11331,6788,-6897,1880,487,-662,40,22,-33
89238,37,160,167,39,55,41,26,30,-6811,-11335,6788,-6893,1892,460,-644,2,-13,-20
89260,49,164,214,36,49,34,26,31,-6809,-11339,6792,-6884,1899,477,-652,-21,-42,-3
89283,57,148,217,35,40,37,27,26,-6796,-11346,6796,-6882,1946,457,-630,54,-66,16
89298,58,135,202,34,39,35,27,27,-6785,-11357,6799,-6870,1938,523,-687,35,-84,11
89320,59,138,205,31,34,32,25,29,-6769,-11377,6805,-6847,1946,556,-745,40,-138,1
89343,60,106,187,28,30,31,25,23,-6748,-11404,6821,-6807,1930,572,-800,18,-238,4
89358,59,82,138,26,30,32,23,41,-6715,-11439,6855,-6746,1875,547,-805,-19,-402,27
89380,119,96,93,26,30,27,24,101,-6663,-11492,6908,-6654,1820,608,-905,-16,-611,71
89403,169,171,119,27,32,37,24,121,-6594,-11572,6982,-6505,1763,738,-1068,-52,-917,65
89418,184,184,122,28,32,43,26,121,-6490,-11689,7057,-6317,1787,614,-1096,46,-1262,-107
89440,208,185,119,35,37,44,26,125,-6399,-11802,7166,-6071,1654,531,-1123,-240,-1531,-148
89471,224,188,108,34,37,43,27,124,-6315,-11897,7292,-5819,1643,564,-1083,-335,-1671,-92
89478,199,184,107,33,36,43,24,84,-6226,-12004,7406,-5545,1759,492,-1057,-317,-1787,-221
89500,162,132,98,34,36,39,24,52,-6138,-12114,7501,-5268,1870,388,-957,-293,-1793,-334
89532,159,112,90,36,37,37,22,65,-6040,-12217,7575,-5034,1914,383,-905,-116,-1603,-296
89538,133,108,86,34,33,38,24,59,-5935,-12291,7635,-4885,1923,374,-855,94,-1368,-188
89569,111,117,87,32,32,37,24,53,-5852,-12342,7676,-4793,1983,330,-840,127,-1038,-160
89583,152,129,91,34,30,36,25,52,-5805,-12371,7692,-4748,1990,365,-834,108,-675,-154
89605,165,112,66,31,28,34,31,65,-5785,-12384,7691,-4740,1915,425,-920,94,-333,-116
89620,168,147,60,44,56,96,64,79,-5805,-12381,7675,-4749,1993,533,-1171,-42,-18,-141
89643,174,176,67,49,62,114,79,96,-5878,-12365,7643,-4754,2253,670,-1504,-287,232,-252
89658,212,176,66,52,64,118,82,109,-5932,-12357,7638,-4714,2079,573,-1768,-435,88,-247
89680,188,159,49,58,70,120,83,112,-5847,-12426,7650,-4619,1458,437,-1936,80,-417,-223
89703,179,161,47,62,74,120,82,108,-5635,-12577,7694,-4394,989,762,-2146,476,-1304,-164
89718,170,128,43,59,57,81,62,99,-5401,-12729,7788,-4074,1367,840,-2146,311,-2318,-229
89740,169,99,39,57,54,60,44,89,-5160,-12843,7948,-3703,1930,614,-2034,33,-2709,22
89763,119,105,40,55,53,56,39,72,-4858,-12926,8166,-3330,1960,443,-1853,160,-2991,424
89785,115,106,41,48,50,56,38,67,-4512,-12993,8405,-2935,1806,490,-1776,252,-3241,580
89808,108,107,45,46,47,55,36,65,-4231,-13037,8621,-2501,1638,624,-1490,-126,-3186,436
89823,137,115,50,41,47,56,36,56,-4054,-13049,8801,-2068,1451,795,-1246,-578,-2811,290
89855,131,118,53,42,48,54,33,54,-3942,-13044,8941,-1680,997,571,-1080,-743,-2312,174
89860,159,121,51,47,58,69,40,73,-3860,-13031,9045,-1380,671,313,-1066,-634,-1741,140
89883,177,128,59,52,60,72,45,80,-3825,-13029,9096,-1153,926,506,-1257,-528,-1379,-92
89898,191,131,59,50,57,71,45,79,-3789,-13054,9095,-978,945,546,-1263,-299,-1115,-350
89920,172,137,60,47,56,68,43,76,-3759,-13064,9105,-861,697,651,-1312,-121,-726,-124
89943,178,135,60,42,53,62,40,70,-3702,-13068,9127,-807,534,494,-1299,107,-476,36
89958,175,137,79,36,42,48,35,56,-3654,-13070,9143,-815,583,364,-1367,195,-177,56
89980,166,139,76,28,36,40,26,50,-3652,-13054,9162,-874,773,467,-1484,151,132,170
90003,163,143,77,26,36,43,24,55,-3693,-13021,9183,-964,919,595,-1605,88,369,264
90025,181,138,80,29,36,41,25,56,-3753,-12987,9195,-1076,909,655,-1732,82,582,260
90048,187,137,83,26,34,41,26,56,-3800,-12964,9191,-1209,810,618,-1818,200,733,210
90063,160,116,63,24,29,40,27,50,-3838,-12956,9167,-1346,729,662,-1926,283,823,114
90095,147,116,86,26,31,40,26,50,-3877,-12952,9137,-1474,681,596,-1873,239,822,56
90132,153,133,113,30,32,37,27,44,-3919,-12932,9124,-1617,676,368,-1641,175,847,164
90134,126,157,126,28,35,42,27,46,-3961,-12879,9147,-1799,689,136,-1470,157,968,423
90145,109,169,133,33,39,48,28,43,-4014,-12784,9207,-2035,732,64,-1213,202,1147,768
90162,133,177,146,36,41,47,28,42,-4098,-12658,9273,-2331,970,114,-1181,255,1432,942
90183,188,198,145,35,38,48,29,62,-4221,-12530,9306,-2652,1198,318,-1227,278,1794,891
90205,186,205,136,36,41,48,32,61,-4355,-12406,9302,-3005,1148,353,-1186,381,2024,758
90220,195,187,131,35,38,46,31,58,-4486,-12293,9268,-3362,1017,336,-1232,451,2095,619
90243,196,173,130,33,36,39,30,58,-4598,-12212,9193,-3695,1230,288,-1171,547,1935,318
90282,184,185,158,41,33,38,29,60,-4729,-12181,9027,-4028,2197,681,-1744,688,2050,-225
90283,151,198,169,43,34,46,41,37,-4901,-12144,8850,-4317,2840,1221,-1869,431,1989,-336
90303,133,177,164,41,30,45,38,36,-5084,-12095,8683,-4574,3224,1488,-1993,274,1885,-304
90325,119,174,161,42,28,43,36,38,-5275,-12058,8515,-4767,2593,1337,-1968,45,1695,-474
90342,110,169,153,42,26,42,37,37,-5456,-12050,8317,-4931,1739,811,-1838,67,1626,-749
90371,104,144,108,31,25,39,36,30,-5573,-12109,8087,-5037,1243,246,-1732,208,1457,-1139
90385,76,82,68,23,25,30,25,30,-5684,-12181,7848,-5115,1251,6,-1495,128,1225,-1377
90408,69,85,68,27,32,31,27,30,-5791,-12230,7660,-5165,1566,25,-1391,-56,915,-1190
90423,66,75,58,24,34,32,27,28,-5868,-12226,7568,-5221,1889,90,-1343,-175,659,-610
90445,80,74,75,27,38,41,31,31,-5891,-12185,7576,-5280,1962,-10,-1284,-209,359,-42
90460,87,75,77,28,51,46,32,30,-5880,-12121,7627,-5366,1968,-24,-1231,-117,320,318
90491,79,59,75,30,57,49,32,29,-5869,-12036,7700,-5464,1957,90,-1120,-111,336,546
90505,78,53,137,47,56,58,33,30,-5874,-11935,7772,-5575,1999,216,-1101,-123,454,660
90520,71,70,193,67,65,71,40,32,-5897,-11816,7852,-5693,1984,386,-1097,-177,576,810
90544,55,70,200,71,64,69,38,30,-5947,-11672,7953,-5797,1931,552,-1091,-368,628,980
90565,38,79,200,71,54,68,40,30,-6012,-11521,8058,-5885,1877,654,-1123,-463,659,1023
90580,31,78,202,71,49,65,39,27,-6061,-11406,8142,-5942,1783,636,-1103,-373,492,819
90603,32,72,168,61,46,57,35,24,-6093,-11349,8183,-5964,1678,630,-1196,-207,359,462
90625,66,58,101,39,34,39,27,25,-6113,-11337,8197,-5946,1560,608,-1195,-125,163,171
90640,89,58,76,28,35,32,26,33,-6109,-11366,8207,-5881,1511,544,-1151,-89,-175,-43
90663,101,43,73,28,37,30,21,40,-6082,-11411,8240,-5774,1542,453,-1106,-148,-530,-87
90687,102,43,65,25,35,26,20,44,-6033,-11455,8307,-5641,1591,395,-1040,-212,-823,-4
90700,105,45,50,25,34,29,25,45,-5974,-11493,8391,-5501,1728,390,-1052,-237,-958,69
90723,91,46,34,27,32,32,27,52,-5912,-11530,8478,-5356,1845,388,-1103,-253,-1027,66
90745,122,67,34,30,33,39,29,53,-5853,-11565,8562,-5210,1858,421,-1166,-258,-1003,57
90760,141,100,53,32,34,44,32,57,-5791,-11598,8629,-5094,1868,346,-1161,-153,-885,22
90783,200,173,103,39,40,51,34,58,-5714,-11650,8666,-4998,1723,325,-1222,44,-775,-87
90805,223,222,116,45,43,58,40,65,-5624,-11723,8688,-4891,1620,357,-1262,141,-834,-180
90836,262,293,138,50,57,87,55,70,-5545,-11806,8687,-4781,1583,423,-1256,169,-797,-307
90843,254,302,142,51,59,91,59,69,-5456,-11923,8645,-4669,1597,557,-1319,373,-812,-505
90867,263,300,138,50,56,89,58,62,-5346,-12066,8576,-4551,1702,447,-1366,486,-935,-744
90880,249,284,122,51,55,87,57,57,-5232,-12220,8490,-4435,1695,514,-1248,596,-996,-815
90903,263,265,120,46,51,81,52,55,-5111,-12349,8418,-4356,1644,451,-1072,661,-924,-633
90925,243,199,98,38,40,53,34,40,-5027,-12426,8386,-4294,1522,377,-932,396,-760,-358
90948,239,181,94,35,34,42,22,35,-4974,-12457,8399,-4243,1440,333,-863,146,-641,-69
90979,219,175,125,35,34,43,21,34,-4933,-12448,8444,-4225,1372,249,-796,49,-471,197
91002,187,160,164,32,32,39,22,35,-4923,-12405,8497,-4256,1490,200,-818,-24,-167,343
91008,141,150,201,34,38,50,29,35,-5006,-12310,8539,-4350,1648,324,-902,-270,453,452
91030,118,140,204,35,36,50,28,40,-5154,-12178,8577,-4475,1623,499,-742,-432,805,579
91045,124,160,214,40,36,53,31,41,-5326,-12055,8560,-4637,1822,471,-828,-350,1108,325
91068,139,170,203,40,35,54,31,42,-5521,-11949,8472,-4837,1925,508,-1108,-217,1564,23
91083,175,166,170,35,35,53,31,44,-5728,-11852,8358,-5031,1938,621,-1282,-260,1756,-145
91105,170,159,121,32,29,43,27,46,-5918,-11765,8231,-5221,1956,667,-1473,-171,1727,-201
91128,161,155,115,34,28,36,27,43,-6049,-11718,8114,-5360,1940,557,-1643,-49,1455,-252
91143,156,137,96,30,28,30,23,44,-6108,-11714,8014,-5450,1825,492,-1708,126,1028,-291
91165,148,118,80,28,32,26,26,63,-6078,-11760,7937,-5496,1626,381,-1739,396,535,-290
91196,147,97,60,27,35,39,53,182,-5980,-11842,7896,-5489,1495,307,-1685,517,-6,-241
91203,160,76,48,29,37,49,93,230,-5864,-11925,7904,-5421,1552,288,-1629,343,-467,-156
91234,186,58,40,25,34,54,106,257,-5739,-11994,7981,-5288,1631,319,-1617,65,-927,56
91248,179,47,32,23,36,75,160,432,-5605,-12030,8132,-5118,1722,309,-1539,-183,-1291,385
91270,174,41,31,28,36,78,168,435,-5441,-12039,8340,-4937,1767,225,-1512,-251,-1544,686
91285,172,45,28,27,32,73,165,407,-5278,-12007,8607,-4726,1716,11,-1575,-478,-1757,1033
91308,195,102,46,26,32,68,147,386,-5054,-11964,8907,-4520,1720,-27,-1505,-282,-1981,1304
91324,204,119,80,30,38,71,139,375,-4770,-11924,9204,-4335,1773,82,-1483,59,-2095,1434
91345,210,133,101,33,39,49,77,170,-4515,-11871,9482,-4150,1749,231,-1425,-43,-1966,1372
91368,209,149,123,37,46,61,61,168,-4321,-11813,9716,-3980,1662,415,-1199,-158,-1656,1166
91383,194,162,137,38,48,64,51,151,-4238,-11778,9827,-3898,1680,492,-1041,15,-1050,656
91405,160,135,137,38,46,62,45,140,-4211,-11796,9822,-3884,1571,682,-944,331,-475,104
91428,113,121,123,34,40,53,42,121,-4271,-11852,9710,-3930,1635,685,-1028,374,168,-491
91443,95,105,111,31,37,53,32,81,-4398,-11912,9546,-4012,1580,585,-1085,239,670,-793
91465,88,82,90,21,27,31,22,49,-4569,-11957,9367,-4107,1553,469,-1198,27,985,-898
91488,58,47,66,21,22,23,19,44,-4764,-11979,9193,-4213,1580,295,-1272,-162,1179,-891
91503,57,54,56,21,24,22,19,40,-4965,-11969,9034,-4352,1663,98,-1346,-249,1391,-780
91525,70,61,58,22,26,21,18,37,-5159,-11926,8899,-4518,1752,-18,-1411,-288,1518,-583
91549,76,68,48,20,25,23,18,31,-5318,-11861,8789,-4718,1761,-64,-1445,-136,1596,-325
91563,122,125,65,22,26,29,22,29,-5412,-11798,8697,-4933,1722,-56,-1496,151,1498,-116
91585,127,135,69,20,28,32,21,28,-5449,-11750,8617,-5142,1660,32,-1543,398,1330,30
91608,129,131,68,21,26,32,21,30,-5448,-11729,8557,-5290,1518,189,-1693,438,1016,64
91623,128,145,88,22,27,32,20,27,-5439,-11724,8523,-5363,1478,385,-1669,297,626,95
91645,145,150,142,26,28,34,20,30,-5425,-11725,8524,-5373,1519,441,-1570,104,226,131
91668,109,107,137,24,27,32,15,33,-5416,-11724,8555,-5337,1581,500,-1519,-81,-47,188
91683,105,97,137,26,27,29,15,35,-5404,-11720,8616,-5258,1627,490,-1345,-247,-371,230
91705,99,97,140,24,27,30,16,35,-5394,-11722,8674,-5169,1778,362,-1253,-301,-521,102
91728,89,69,139,32,36,34,17,34,-5388,-11734,8709,-5087,1821,320,-1201,-248,-500,-36
91743,43,49,87,35,35,33,24,33,-5384,-11747,8728,-5028,1831,305,-1160,-161,-398,-77
91765,39,49,80,36,33,30,25,28,-5384,-11758,8735,-4991,1824,253,-1123,-108,-298,-115
91788,27,45,78,38,35,31,24,25,-5387,-11765,8730,-4981,1806,213,-1093,-44,-158,-116
91803,28,40,76,38,36,31,25,19,-5394,-11766,8718,-4991,1795,210,-1109,4,-30,-99
91827,32,63,55,31,26,27,24,21,-5407,-11760,8707,-5010,1777,261,-1132,8,56,-49
91848,33,63,49,26,27,25,17,18,-5421,-11747,8699,-5039,1730,290,-1176,17,139,22
91870,34,63,51,26,26,25,19,19,-5434,-11730,8700,-5063,1678,299,-1198,-14,143,74
91885,37,77,57,21,24,26,20,21,-5445,-11711,8706,-5084,1648,287,-1232,-36,149,93
91908,70,100,61,25,21,26,19,27,-5456,-11695,8710,-5103,1650,299,-1249,-27,144,78
91930,75,90,53,26,22,32,19,26,-5462,-11688,8707,-5118,1658,363,-1247,32,110,55
91945,80,98,59,24,19,30,20,27,-5462,-11693,8700,-5118,1684,378,-1306,41,44,-10
91968,84,101,57,24,19,30,20,28,-5465,-11702,8693,-5108,1695,369,-1282,2,-16,-50
91999,81,96,53,25,19,30,20,26,-5468,-11714,8682,-5094,1706,365,-1229,3,-56,-88
92005,58,87,52,21,19,29,19,22,-5467,-11729,8671,-5078,1711,337,-1225,12,-88,-110
92028,46,85,58,20,19,23,22,21,-5466,-11741,8661,-5069,1696,305,-1201,18,-64,-99
92050,39,81,53,20,20,22,21,20,-5464,-11749,8654,-5065,1708,280,-1202,6,-48,-76
92066,30,78,54,22,21,23,19,21,-5466,-11751,8649,-5069,1726,268,-1173,8,-17,-51
92088,30,74,55,22,24,22,20,24,-5466,-11750,8649,-5070,1711,276,-1189,2,8,-10
92110,24,62,65,22,25,25,20,23,-5467,-11744,8650,-5081,1695,294,-1195,8,33,29
92125,43,76,61,23,28,29,18,25,-5472,-11734,8652,-5095,1684,319,-1202,3,67,54
92148,48,77,61,26,28,32,20,26,-5477,-11727,8652,-5107,1680,333,-1185,9,63,44
92172,51,79,61,24,29,32,20,25,-5478,-11725,8645,-5123,1708,341,-1213,60,69,15
92186,51,79,58,24,27,32,20,24,-5481,-11729,8631,-5134,1727,359,-1235,69,62,-33
92208,51,83,40,25,28,30,20,26,-5483,-11736,8615,-5141,1739,377,-1247,73,49,-55
92230,39,75,36,22,25,26,22,26,-5487,-11745,8599,-5144,1759,370,-1259,51,34,-74
92246,35,71,35,20,26,22,21,25,-5495,-11754,8582,-5143,1769,395,-1254,28,23,-80
92268,29,74,31,20,24,22,21,25,-5499,-11766,8568,-5135,1742,388,-1264,27,-10,-94
92290,30,75,33,20,26,21,20,24,-5499,-11781,8555,-5121,1728,366,-1280,16,-48,-107
92306,29,64,32,25,35,32,20,21,-5497,-11796,8544,-5107,1714,327,-1280,6,-54,-120
92328,32,53,37,36,56,41,21,24,-5499,-11807,8532,-5099,1759,302,-1303,-9,-15,-121
92351,37,48,38,55,63,47,21,25,-5509,-11814,8516,-5100,1881,332,-1367,-12,50,-118
92366,51,43,39,60,69,54,25,36,-5534,-11815,8495,-5105,2074,395,-1427,-49,95,-139
92388,55,56,41,109,134,87,46,61,-5569,-11799,8470,-5147,2154,280,-1392,-47,284,-105
92411,88,69,54,125,154,135,85,121,-5574,-11747,8463,-5270,2053,-26,-1376,122,595,156
92426,97,91,89,215,286,158,93,141,-5418,-11718,8519,-5404,1624,-409,-1706,607,292,548
92448,127,107,113,237,343,195,112,150,-5148,-11708,8630,-5513,1888,-449,-1842,932,-305,873
92479,131,109,149,275,505,210,114,152,-4829,-11753,8720,-5565,1980,200,-1801,1344,-833,945
92493,135,151,230,291,689,261,138,154,-4560,-11806,8862,-5452,1527,693,-1756,753,-1360,1007
92524,143,156,245,306,698,260,129,122,-4440,-11814,9039,-5241,1470,1020,-1310,-143,-1477,983
92531,141,146,242,288,698,259,129,102,-4462,-11837,9147,-4976,1605,1050,-1219,-726,-1293,310
92546,114,145,239,276,674,237,116,89,-4576,-11860,9225,-4665,1729,615,-1105,-1353,-1265,-251
92568,104,147,219,241,564,224,116,82,-4734,-11886,9254,-4374,1816,324,-1081,-1511,-1037,-654
92590,98,97,131,204,296,147,78,61,-4841,-11927,9246,-4154,1818,37,-1123,-1128,-866,-808
92607,60,104,135,233,348,147,75,46,-4890,-11988,9214,-3989,1708,-83,-1342,-724,-699,-849
92628,59,117,134,204,301,149,71,43,-4910,-12046,9185,-3858,1721,21,-1364,-484,-668,-709
92659,56,108,123,194,309,142,65,40,-4873,-12107,9171,-3743,1606,90,-1522,-205,-721,-521
92666,60,113,132,232,350,144,63,42,-4819,-12171,9176,-3590,1403,294,-1636,-210,-866,-409
92688,67,117,155,245,387,147,62,47,-4787,-12230,9196,-3377,1315,507,-1735,-448,-1022,-386
92711,72,158,190,194,332,111,48,45,-4724,-12287,9237,-3140,1247,504,-1589,-415,-1309,-300
92726,70,155,196,186,292,100,56,46,-4661,-12360,9254,-2886,1378,737,-1775,-352,-1385,-437
92748,71,154,196,204,420,107,61,48,-4562,-12439,9282,-2599,1103,581,-1745,-367,-1595,-458
92771,70,154,202,187,417,117,65,52,-4464,-12505,9317,-2310,1226,544,-1641,-429,-1673,-428
92786,80,158,215,210,410,125,70,57,-4390,-12562,9334,-2059,1281,492,-1568,-412,-1531,-487
92808,76,106,168,216,404,131,69,56,-4335,-12611,9337,-1851,1335,544,-1536,-342,-1320,-480
92840,78,102,158,215,416,122,62,57,-4268,-12666,9327,-1676,1149,617,-1601,-152,-1119,-460
92869,121,186,178,204,291,133,66,63,-4181,-12717,9324,-1518,866,377,-1745,-155,-976,-409
92877,131,189,194,188,258,130,65,74,-4105,-12762,9323,-1346,686,392,-1819,-262,-920,-378
92906,128,190,174,156,289,129,69,73,-3983,-12803,9345,-1155,615,424,-1900,-136,-1163,-259
92913,126,195,188,172,478,130,79,79,-3877,-12827,9381,-933,740,608,-1923,-254,-1345,-180
92928,134,234,204,172,505,132,80,77,-3743,-12839,9441,-678,700,499,-1968,-257,-1630,-78
92951,110,207,186,165,497,118,74,73,-3638,-12837,9499,-453,695,772,-1773,-205,-1449,2
92973,106,207,160,154,496,111,71,67,-3590,-12834,9528,-247,648,830,-1661,-353,-1161,-97
92988,115,230,202,139,459,104,64,68,-3574,-12833,9538,-91,699,571,-1736,-477,-845,-192
93011,148,244,200,106,253,91,52,61,-3552,-12843,9533,15,590,523,-1843,-318,-573,-221
93034,145,214,186,92,164,79,46,61,-3528,-12859,9520,113,462,725,-1905,-197,-474,-220
93048,142,205,217,103,171,82,48,61,-3485,-12865,9526,214,408,698,-1934,-155,-554,-111
93071,140,212,229,106,159,86,51,52,-3433,-12854,9558,291,414,590,-1887,-102,-529,74
93093,135,200,183,104,150,85,49,43,-3392,-12834,9597,354,461,705,-1928,-62,-471,151
93108,103,214,177,98,131,95,47,47,-3390,-12813,9624,391,647,773,-1874,-107,-316,101
93132,105,224,200,117,158,110,53,51,-3385,-12795,9650,407,644,707,-1953,-69,-220,110
93153,123,224,190,183,222,134,67,55,-3378,-12781,9669,420,503,873,-1983,26,-139,114
93176,138,216,172,223,238,142,69,51,-3381,-12767,9686,443,436,908,-1922,-14,-117,109
93190,148,210,175,229,253,153,72,56,-3363,-12760,9699,480,392,685,-2010,-101,-215,31
93213,149,175,161,244,288,158,76,56,-3349,-12754,9711,502,489,656,-2011,-76,-191,18
93228,177,183,181,237,284,147,71,53,-3329,-12751,9721,522,432,696,-1968,-18,-176,20
93250,180,175,175,186,320,127,57,53,-3318,-12731,9750,537,502,772,-1916,1,-191,152
93281,173,191,187,134,308,114,52,57,-3323,-12723,9760,526,561,791,-1887,37,-33,58
93288,169,193,203,141,324,149,68,59,-3332,-12731,9748,496,519,787,-1944,90,122,-61
93310,171,206,231,128,330,148,64,65,-3332,-12749,9725,456,480,715,-1988,126,175,-127
93333,177,236,219,179,341,152,69,71,-3321,-12767,9708,410,497,688,-2021,177,161,-99
93348,178,258,223,192,279,147,69,74,-3308,-12779,9698,367,464,678,-2011,177,149,-51
93370,173,262,213,202,324,149,70,71,-3304,-12784,9695,334,520,695,-2041,102,105,-11
93393,171,256,206,232,337,145,73,65,-3302,-12794,9682,308,522,704,-2030,85,91,-77
93408,172,266,214,245,394,170,85,65,-3293,-12801,9677,288,463,644,-2059,57,67,-33
93430,144,262,242,214,397,168,81,65,-3279,-12803,9679,275,464,673,-2044,76,10,6
93453,132,247,240,214,401,168,80,60,-3270,-12804,9682,258,512,722,-1971,104,11,17
93468,143,244,265,216,404,192,89,71,-3263,-12802,9688,245,485,675,-1981,54,12,40
93490,178,241,260,201,410,185,83,75,-3262,-12800,9690,240,449,694,-2016,3,20,20
93513,191,240,235,196,347,168,76,71,-3265,-12796,9695,231,501,682,-2034,-7,32,34
93528,182,196,198,207,353,177,84,76,-3264,-12796,9696,209,533,690,-2021,66,60,13
93550,182,206,227,220,412,192,88,81,-3261,-12795,9699,198,521,696,-1996,43,9,19
93573,172,217,266,222,386,175,83,72,-3268,-12791,9702,195,551,797,-1979,26,-14,27
93588,146,244,281,231,369,197,88,75,-3280,-12794,9694,184,517,714,-1997,-11,77,-36
93610,124,232,323,238,395,190,89,79,-3293,-12798,9685,167,501,565,-2032,-76,119,-58
93633,132,226,321,240,388,197,87,70,-3293,-12797,9686,151,516,643,-2066,8,66,12
93648,121,221,303,239,322,200,88,61,-3307,-12790,9691,143,541,736,-2006,-30,46,50
93670,148,215,254,298,358,269,112,70,-3328,-12787,9688,135,551,779,-1978,-31,76,3
93693,133,196,265,335,372,269,121,74,-3344,-12793,9674,114,537,718,-1963,14,140,-60
93708,147,233,240,335,354,287,122,69,-3355,-12804,9656,83,547,717,-1971,73,169,-84
93739,143,241,224,343,376,283,120,67,-3364,-12817,9636,37,554,663,-1973,112,233,-90
93753,155,229,212,332,367,273,120,75,-3370,-12827,9620,-9,501,668,-1987,122,254,-53
93775,152,246,204,282,387,213,102,67,-3377,-12836,9606,-55,559,660,-1998,112,225,-49
93799,156,252,184,253,366,214,95,58,-3395,-12842,9591,-103,609,698,-1963,89,254,-36
93821,145,210,149,261,361,207,98,63,-3414,-12848,9576,-147,534,704,-1934,88,278,-29
93835,147,212,173,250,353,211,101,65,-3429,-12850,9567,-191,506,635,-1924,68,273,6
93850,136,218,227,255,347,220,100,61,-3450,-12849,9559,-242,619,594,-1944,38,279,7
93873,107,176,244,242,283,219,95,63,-3481,-12846,9550,-304,647,679,-1930,70,357,33
93912,96,154,232,199,280,181,80,57,-3524,-12838,9543,-371,543,710,-1851,60,459,90
93913,112,209,274,163,262,158,68,49,-3569,-12823,9543,-448,480,558,-1810,5,546,142
93933,136,200,274,137,212,142,61,44,-3610,-12792,9564,-563,364,280,-1724,2,730,318
93955,150,209,234,130,201,122,53,45,-3695,-12743,9585,-742,677,453,-1716,94,1024,428
93979,157,217,230,124,174,98,44,41,-3817,-12714,9560,-918,950,723,-1670,92,1073,164
94018,157,226,255,102,138,89,39,40,-3946,-12685,9528,-1088,921,857,-1645,112,1111,166
94020,158,188,215,89,76,72,35,42,-4046,-12654,9505,-1270,667,727,-1671,205,1213,265
94046,128,191,219,86,71,66,33,41,-4142,-12620,9476,-1495,604,493,-1672,254,1447,274
94053,107,162,221,60,64,61,31,32,-4290,-12586,9409,-1759,773,419,-1658,186,1746,116
94075,100,186,209,63,58,59,29,35,-4485,-12560,9300,-2018,1065,449,-1645,12,1910,-130
94098,129,227,200,66,55,64,31,43,-4691,-12532,9181,-2256,1474,745,-1776,-80,1845,-202
94113,133,222,222,61,52,73,31,41,-4877,-12517,9054,-2455,1586,758,-1707,-86,1609,-327
94135,144,262,274,63,50,75,35,44,-5061,-12483,8940,-2661,1479,810,-1515,-15,1541,-174
94150,150,306,330,72,55,81,36,45,-5170,-12458,8832,-2921,1243,475,-1461,371,1647,-43
94173,174,293,350,80,61,87,37,45,-5243,-12433,8707,-3250,1062,345,-1469,745,1889,43
94195,164,278,365,86,63,88,38,41,-5321,-12406,8562,-3593,1127,600,-1426,803,1999,7
94210,157,296,378,82,66,83,38,42,-5444,-12355,8427,-3894,1378,748,-1341,454,1947,-4
94233,171,290,385,89,68,83,33,47,-5610,-12280,8309,-4139,1620,639,-1368,30,1827,-45
94255,185,285,353,92,71,85,34,50,-5767,-12186,8229,-4356,1635,330,-1476,-135,1657,103
94270,172,304,353,86,79,95,35,51,-5825,-12093,8207,-4574,1552,286,-1488,108,1375,430
94294,161,294,328,77,78,90,31,49,-5836,-12003,8198,-4806,1664,459,-1260,430,1165,645
94324,188,319,349,93,87,103,35,57,-5815,-11957,8162,-5006,1760,679,-1216,680,896,506
94330,199,309,299,94,84,101,35,57,-5799,-11955,8068,-5177,1917,766,-1379,775,882,116
94355,191,275,288,92,84,97,33,54,-5823,-11975,7930,-5316,2013,828,-1336,667,872,-245
94375,182,248,281,85,74,79,31,56,-5843,-12021,7761,-5439,1909,800,-1248,738,827,-461
94398,186,247,337,99,91,95,34,61,-5885,-12072,7575,-5541,1709,620,-1145,585,844,-690
94429,159,185,321,94,84,99,32,58,-5974,-12092,7414,-5619,1777,500,-1156,170,878,-723
94435,116,172,329,83,81,98,29,53,-6075,-12084,7288,-5692,1969,521,-1099,-11,818,-559
94450,120,205,339,77,92,109,34,58,-6140,-12067,7185,-5790,2112,326,-1095,77,778,-438
94473,132,223,344,82,96,117,35,58,-6176,-12057,7085,-5893,2007,258,-1089,200,748,-387
94495,131,225,311,63,80,106,35,53,-6200,-12055,6981,-5996,1897,319,-1092,288,755,-362
94510,126,269,276,52,82,91,34,46,-6219,-12054,6880,-6094,1832,414,-1052,314,732,-293
94533,132,274,266,56,85,95,37,50,-6240,-12046,6790,-6189,1911,474,-1047,273,703,-226
94555,126,320,292,70,83,100,35,44,-6261,-12030,6720,-6275,1967,491,-1086,191,660,-142
94570,117,305,315,71,78,89,34,39,-6281,-12010,6672,-6344,1901,543,-1093,114,575,-43
94593,114,313,306,74,82,87,32,38,-6299,-11993,6618,-6415,1864,594,-931,169,532,-35
94615,104,283,365,83,80,85,34,40,-6321,-11982,6559,-6473,1897,525,-970,127,500,-141
94630,100,285,390,95,83,87,32,35,-6339,-11977,6504,-6521,1880,472,-974,114,446,-178
94654,83,225,423,91,77,65,30,38,-6346,-11982,6445,-6564,1866,566,-965,192,391,-154
94675,95,289,416,94,82,74,35,39,-6345,-11988,6398,-6601,1831,541,-913,189,306,-113
94690,102,278,440,92,81,75,35,41,-6343,-11992,6370,-6622,1826,566,-942,111,221,-50
94713,98,266,386,89,83,73,32,40,-6341,-11991,6360,-6634,1814,578,-928,46,150,24
94735,97,270,372,76,83,65,31,40,-6334,-11990,6366,-6637,1831,547,-888,6,51,65
94758,93,268,322,71,82,69,34,34,-6334,-11983,6378,-6638,1827,587,-880,-41,45,105
94773,91,226,294,69,78,62,33,38,-6334,-11975,6390,-6641,1859,626,-864,-28,49,130
94795,85,227,257,74,74,65,33,37,-6337,-11972,6392,-6641,1876,652,-843,-5,41,71
94818,86,241,282,69,69,61,33,37,-6345,-11970,6389,-6640,1860,608,-815,-22,42,13
94833,83,214,283,72,65,57,34,38,-6355,-11967,6390,-6635,1791,560,-787,-55,28,7
94855,79,196,262,73,64,55,34,38,-6361,-11953,6401,-6643,1785,521,-752,-40,46,79
94878,105,184,301,77,72,63,31,43,-6371,-11937,6414,-6651,1834,520,-760,-87,67,87
94894,105,167,286,72,73,59,31,44,-6373,-11925,6418,-6667,1862,530,-771,-7,92,79
94915,103,159,259,71,75,60,31,43,-6381,-11910,6424,-6681,1853,558,-790,-43,112,98
94938,105,170,234,65,71,65,31,44,-6390,-11890,6434,-6698,1875,540,-760,-59,113,116
94954,111,160,226,62,77,71,29,44,-6394,-11875,6441,-6712,1878,520,-775,-36,98,87
94975,71,133,148,47,65,59,25,30,-6397,-11866,6450,-6718,1864,516,-830,-50,74,69
94998,78,165,163,49,71,61,28,33,-6403,-11855,6463,-6719,1824,538,-839,-82,68,90
95014,94,167,164,55,70,63,28,34,-6405,-11849,6472,-6719,1834,562,-803,-38,37,77
95035,94,186,162,55,72,61,26,31,-6404,-11848,6476,-6717,1817,536,-785,-11,14,45
95058,91,205,159,54,60,50,27,36,-6408,-11849,6476,-6711,1836,504,-751,-26,-9,-18
95074,102,231,165,60,65,55,31,38,-6409,-11854,6471,-6706,1845,511,-726,11,-22,-37
95096,101,221,170,60,62,52,30,36,-6409,-11863,6463,-6701,1877,516,-760,27,-21,-61
95118,89,229,218,52,62,48,31,36,-6410,-11865,6459,-6699,1869,469,-760,-3,3,-48
95135,87,237,217,57,64,47,31,36,-6409,-11867,6458,-6697,1866,478,-757,-4,-3,-20
95157,114,261,233,57,72,51,32,44,-6409,-11867,6458,-6696,1832,518,-774,2,-2,8
95178,104,260,307,57,72,49,31,43,-6409,-11868,6458,-6695,1833,527,-800,15,0,-3
95194,95,252,306,58,72,51,29,40,-6414,-11867,6460,-6691,1849,522,-770,-37,7,-5
17,Repeat 1,,,,,,,,,,,,,,,,,
38,100,219,274,59,87,63,31,43,-6417,-11868,6458,-6688,1858,509,-759,6,-13,-10
55,82,175,259,63,88,67,32,31,-6412,-11872,6458,-6684,1869,546,-784,26,-22,14
77,85,140,163,56,85,65,30,39,-6412,-11873,6458,-6683,1837,531,-786,-16,-15,9
98,83,166,176,56,85,66,30,48,-6413,-11871,6470,-6673,1833,499,-772,-66,-43,27
115,83,178,230,50,67,60,32,51,-6409,-11870,6484,-6666,1816,488,-760,-38,-52,47
137,71,186,217,48,64,55,31,49,-6404,-11870,6497,-6659,1825,507,-754,-25,-61,55
158,52,194,218,43,58,47,25,47,-6398,-11869,6509,-6654,1858,514,-746,-12,-63,59
181,48,219,217,50,69,45,25,41,-6399,-11865,6516,-6653,1898,524,-759,-29,-19,41
197,78,224,205,46,64,47,29,37,-6408,-11860,6517,-6654,1906,536,-764,-41,29,4
218,87,219,151,49,64,44,29,37,-6416,-11858,6510,-6656,1896,534,-780,-12,52,-26
241,90,237,179,57,76,43,28,36,-6422,-11860,6500,-6655,1855,538,-790,2,46,-44
257,88,237,183,59,78,42,29,35,-6427,-11864,6494,-6650,1837,521,-785,-15,15,-46
286,93,229,197,56,68,45,30,38,-6429,-11867,6496,-6640,1842,506,-774,-33,-33,-25
301,72,223,220,57,70,42,24,30,-6426,-11871,6503,-6630,1856,507,-775,-21,-62,1
317,65,219,223,61,69,44,23,28,-6421,-11873,6514,-6620,1860,494,-786,-28,-73,19
338,72,201,215,58,73,51,22,28,-6419,-11873,6522,-6613,1869,508,-757,-26,-53,20
361,81,200,231,56,77,59,25,31,-6420,-11874,6527,-6606,1892,565,-774,-18,-39,21
377,74,181,225,55,85,61,24,27,-6424,-11874,6527,-6602,1879,559,-745,-17,-22,1
398,74,160,203,57,88,63,27,31,-6428,-11877,6524,-6597,1857,543,-752,-6,-18,-19
421,82,171,199,51,91,65,26,30,-6432,-11879,6519,-6594,1828,541,-747,0,-1,-29
437,76,146,193,45,81,62,27,32,-6435,-11882,6512,-6592,1827,521,-751,10,8,-38
458,78,148,174,45,74,56,24,32,-6437,-11886,6506,-6589,1836,523,-776,4,6,-41
481,82,156,164,43,64,52,24,33,-6436,-11890,6505,-6583,1839,508,-783,-4,-19,-30
497,89,151,160,41,63,51,20,32,-6437,-11892,6507,-6576,1845,520,-775,-20,-32,-9
518,74,147,158,43,67,50,21,28,-6435,-11893,6511,-6572,1857,516,-785,-16,-25,4
541,72,145,149,46,71,50,22,28,-6434,-11894,6516,-6568,1865,524,-790,-15,-20,12
557,62,135,135,43,70,50,25,26,-6433,-11894,6523,-6562,1837,533,-787,-23,-31,30
578,78,149,155,43,71,52,26,30,-6432,-11893,6530,-6557,1800,533,-751,-17,-37,31
601,75,159,146,44,70,50,28,29,-6429,-11893,6536,-6555,1829,527,-761,-6,-28,34
617,82,140,175,39,62,49,29,32,-6428,-11893,6540,-6552,1868,524,-765,-12,-29,11
638,86,144,174,39,57,48,31,34,-6429,-11893,6539,-6552,1876,539,-780,-15,-10,-3
661,89,141,174,43,65,54,29,34,-6429,-11893,6539,-6552,1867,540,-769,6,-15,-7
677,79,217,163,56,67,57,30,35,-6428,-11896,6535,-6550,1844,533,-788,19,-1,-18
698,87,218,174,62,69,63,28,36,-6427,-11899,6533,-6548,1842,505,-777,5,-12,-24
721,85,222,135,65,75,67,28,33,-6423,-11902,6533,-6546,1846,499,-776,12,-19,-12
737,83,256,177,64,76,67,25,30,-6419,-11904,6534,-6546,1871,532,-781,18,-16,11
759,86,290,212,62,69,61,25,33,-6416,-11904,6536,-6547,1877,532,-782,13,-9,24
781,82,245,226,52,69,57,24,29,-6416,-11904,6536,-6547,1856,529,-793,6,-8,9
797,69,254,232,47,65,48,23,27,-6416,-11904,6536,-6547,1838,512,-790,15,-1,-11
819,73,306,241,44,58,48,21,35,-6415,-11907,6533,-6546,1840,508,-773,14,-2,-22
841,74,281,227,47,61,51,20,35,-6411,-11912,6531,-6542,1840,523,-789,20,-24,-20
858,66,242,194,48,59,53,23,34,-6408,-11914,6533,-6539,1831,495,-773,5,-29,-6
878,59,236,204,51,61,57,24,34,-6404,-11913,6540,-6539,1851,480,-774,-11,-29,19
901,76,227,208,57,62,58,26,37,-6399,-11912,6546,-6539,1854,503,-789,1,-18,34
917,69,145,201,57,63,53,26,30,-6392,-11912,6552,-6539,1842,498,-799,8,-18,31
938,62,155,214,55,57,49,28,29,-6389,-11909,6561,-6539,1825,479,-796,-21,-11,38
961,63,169,224,54,61,46,25,26,-6385,-11904,6573,-6541,1831,484,-789,-30,-10,66
977,81,176,227,54,68,47,27,28,-6375,-11901,6585,-6544,1840,485,-807,12,-17,72
998,75,172,213,50,71,45,30,27,-6363,-11900,6599,-6542,1833,488,-829,2,-39,81
1021,96,205,246,50,75,51,32,34,-6353,-11896,6619,-6540,1849,485,-812,-25,-54,99
1038,103,195,227,48,76,51,33,37,-6334,-11895,6644,-6535,1881,469,-860,-4,-92,118
1059,102,186,217,59,92,69,37,39,-6313,-11895,6677,-6521,1913,498,-833,-24,-171,153
1081,93,174,193,77,120,82,39,43,-6288,-11874,6734,-6525,2068,448,-893,-81,-120,299
1104,85,165,186,113,135,83,38,41,-6251,-11838,6798,-6561,2135,314,-1052,-46,63,397
1120,61,125,138,157,186,122,50,43,-6190,-11802,6882,-6595,2064,256,-1129,-15,11,524
1141,65,141,187,194,247,141,60,56,-6122,-11744,6994,-6644,2202,389,-1111,-15,5,808
1163,70,165,208,214,296,159,65,65,-6060,-11698,7119,-6649,2060,609,-1114,-94,-185,866
1180,68,153,202,251,337,203,77,66,-6010,-11661,7270,-6595,1909,735,-948,-275,-523,886
1201,96,171,216,262,391,290,112,131,-6011,-11602,7446,-6500,1857,686,-936,-685,-566,828
1223,97,177,217,271,407,303,116,144,-6028,-11536,7651,-6363,1854,532,-828,-953,-801,762
1240,87,161,193,256,396,301,120,171,-6023,-11472,7870,-6215,1955,279,-808,-975,-994,709
1269,86,135,178,275,371,299,121,178,-5991,-11425,8084,-6056,2191,199,-885,-869,-1179,631
1284,98,139,187,262,355,308,131,182,-5904,-11427,8261,-5898,2039,385,-894,-426,-1335,569
1301,81,121,178,252,323,241,115,143,-5806,-11471,8391,-5723,1998,326,-1066,-277,-1368,227
1321,87,131,230,290,286,290,144,134,-5724,-11536,8502,-5507,1840,376,-1083,-362,-1464,12
1344,99,137,212,381,382,323,159,96,-5640,-11609,8599,-5286,1902,371,-1130,-330,-1518,-95
1360,104,142,217,403,433,368,174,88,-5538,-11698,8672,-5072,1919,449,-1167,-142,-1550,-165
1381,92,131,206,433,429,344,164,79,-5423,-11802,8744,-4827,1896,309,-1339,-197,-1650,-290
1404,84,124,213,461,429,346,159,82,-5324,-11906,8825,-4524,1825,241,-1315,-460,-1861,-401
1420,96,111,163,455,458,318,136,77,-5234,-12000,8914,-4194,1771,171,-1299,-610,-1958,-414
1441,120,138,218,452,470,320,138,98,-5105,-12116,8974,-3880,1548,367,-1515,-314,-1956,-494
1463,147,178,273,494,613,352,147,113,-4971,-12238,9016,-3562,1261,590,-1458,-249,-1953,-560
1480,156,186,275,469,828,369,155,129,-4864,-12350,9046,-3232,1204,445,-1358,-415,-1905,-652
1501,180,193,279,486,923,409,180,174,-4778,-12454,9060,-2901,1382,247,-1498,-527,-1825,-744
1524,175,197,277,478,1005,400,180,194,-4638,-12568,9069,-2595,1276,8,-1513,-224,-1885,-716
1540,190,182,237,435,999,386,170,191,-4479,-12660,9087,-2357,1057,370,-1645,57,-1623,-458
1563,200,150,155,379,1007,323,152,180,-4341,-12746,9093,-2115,931,604,-1712,-10,-1513,-476
1593,205,163,165,392,918,310,149,177,-4223,-12818,9104,-1850,895,507,-1766,-243,-1549,-493
1600,195,175,172,353,917,321,143,144,-4114,-12874,9129,-1567,913,398,-1718,-362,-1660,-414
1631,192,199,175,475,921,358,166,129,-4010,-12901,9172,-1347,1026,445,-1765,-286,-1460,-218
1660,196,217,177,472,1093,348,163,124,-3909,-12933,9196,-1150,855,613,-1812,-142,-1270,-228
1661,171,244,222,462,1012,351,163,145,-3795,-12960,9229,-949,735,512,-1919,-171,-1288,-186
1681,220,280,272,526,1086,444,189,160,-3676,-12971,9286,-675,537,408,-2028,-375,-1641,-106
1704,237,307,301,567,1057,400,179,163,-3539,-12972,9351,-432,708,542,-1949,-196,-1606,0
1721,274,289,312,481,1000,370,164,160,-3469,-12970,9387,-252,822,851,-1729,-149,-1223,-58
1741,287,278,321,518,862,414,177,158,-3447,-12949,9428,-48,725,815,-1814,-503,-1137,-10
1764,340,258,303,508,945,413,188,183,-3413,-12934,9460,118,674,557,-1888,-473,-983,-60
1780,318,248,333,507,902,429,214,181,-3316,-12935,9491,241,418,435,-1993,-112,-875,-42
1801,341,246,306,482,880,475,219,198,-3228,-12936,9516,357,430,732,-2030,7,-825,-32
1824,315,247,288,497,910,482,216,201,-3167,-12938,9529,464,416,796,-1926,-25,-706,-77
1840,290,265,307,496,1082,528,220,214,-3147,-12927,9546,549,475,741,-1777,-157,-534,-5
1861,259,273,297,504,1010,530,213,203,-3172,-12915,9552,589,650,731,-1738,-214,-276,-26
1884,253,276,215,454,980,473,175,212,-3161,-12927,9539,586,553,546,-1965,-27,-108,-154
1900,219,283,219,459,1039,485,192,200,-3113,-12944,9534,568,389,558,-2183,163,-68,-89
1921,216,276,233,466,1090,492,202,198,-3042,-12952,9543,600,221,646,-2266,128,-293,-14
1944,209,284,196,432,932,421,187,183,-3005,-12952,9552,654,303,836,-2120,25,-348,-15
1960,184,270,196,478,967,425,190,156,-3007,-12939,9567,684,513,832,-1910,-45,-254,52
1981,191,242,207,484,944,402,184,188,-3019,-12936,9567,682,547,695,-1881,-47,-75,-34
2004,196,220,231,525,911,412,188,188,-3015,-12951,9549,666,478,580,-1934,20,-7,-150
2020,195,236,236,536,949,458,195,186,-2985,-12963,9544,631,400,536,-2022,157,28,-68
2041,247,208,238,549,992,457,196,186,-2982,-12963,9546,622,359,737,-2043,50,12,16
2064,251,210,249,540,958,448,190,190,-2987,-12961,9548,615,370,758,-2050,12,32,18
2080,236,202,241,540,921,443,179,130,-2990,-12958,9551,602,429,662,-2048,-7,16,13
2101,226,195,222,497,906,381,146,110,-2993,-12966,9541,581,410,662,-2020,33,79,-64
2124,239,218,231,476,776,309,119,110,-2976,-12972,9541,546,367,583,-2030,129,89,-3
2140,200,218,243,444,632,271,107,104,-2961,-12973,9545,522,374,639,-2049,108,39,25
2161,184,260,280,451,688,315,121,129,-2967,-12970,9548,500,441,711,-2057,44,70,34
2183,202,298,369,559,970,489,206,224,-2962,-12969,9552,486,388,620,-2121,11,35,21
2200,197,337,366,555,986,507,210,230,-2952,-12971,9553,472,374,646,-2077,61,24,-1
2221,210,354,354,531,1020,514,214,229,-2946,-12966,9562,470,384,695,-2040,31,-35,52
2244,193,359,352,580,1085,561,226,239,-2954,-12960,9568,459,494,715,-2013,10,-1,41
2260,186,339,332,579,1161,553,222,225,-2968,-12963,9561,431,451,740,-1981,62,128,-20
2281,242,382,268,452,958,424,165,142,-2988,-12969,9547,403,394,737,-2030,32,198,-51
2303,250,351,264,443,923,390,159,131,-2996,-12974,9540,382,426,628,-2031,5,104,-38
2320,228,313,273,472,891,379,158,126,-3000,-12980,9531,342,484,570,-2046,55,152,-44
2341,243,328,296,419,924,335,151,115,-3005,-12986,9523,300,443,641,-2069,94,194,-27
2363,258,326,308,401,778,330,155,116,-3003,-12986,9524,284,371,665,-2061,51,83,27
2386,210,261,287,423,895,320,152,118,-3015,-12982,9526,286,410,714,-2032,-49,24,23
2401,215,292,298,448,1004,360,158,137,-3031,-12988,9514,253,467,678,-2017,46,186,-47
2423,229,301,285,442,1009,375,162,143,-3049,-12991,9505,209,511,673,-2016,66,217,-19
2446,229,300,245,430,881,358,158,145,-3072,-12993,9495,183,465,690,-2039,-16,184,-25
2461,208,312,209,398,918,344,153,144,-3087,-12991,9493,187,372,656,-2107,-105,73,6
2483,194,298,194,382,856,343,143,129,-3097,-12994,9486,177,403,682,-2097,-23,112,-25
2506,173,266,198,355,716,331,147,115,-3111,-12995,9480,152,494,646,-2028,2,142,-19
2521,160,268,200,298,638,283,129,102,-3133,-12989,9481,125,525,656,-1993,-23,146,42
2543,138,246,199,295,660,277,123,95,-3151,-12983,9484,94,538,620,-2026,-22,157,48
2566,137,221,196,291,607,263,118,91,-3171,-12976,9487,64,551,626,-2063,-30,159,45
2581,126,245,188,260,680,262,122,82,-3182,-12974,9487,26,511,666,-2025,64,193,44
2603,181,246,192,232,718,235,103,81,-3187,-12972,9487,-7,498,668,-2066,71,164,44
2626,191,232,211,265,762,255,113,87,-3193,-12970,9489,-25,448,682,-2044,36,124,44
2641,197,233,215,295,799,263,117,87,-3205,-12968,9487,-43,476,664,-1995,2,133,20
2663,196,239,225,318,846,260,122,90,-3210,-12967,9486,-67,537,597,-1969,27,104,7
2686,216,217,229,323,699,219,103,88,-3214,-12967,9485,-99,563,615,-1926,79,119,21
2702,174,195,206,352,637,240,115,80,-3222,-12966,9483,-132,509,635,-1893,77,163,30
2723,161,196,196,342,636,229,107,78,-3235,-12960,9486,-178,528,597,-1892,80,235,71
2746,158,192,197,314,574,212,100,71,-3248,-12954,9488,-241,521,572,-1854,124,310,91
2762,197,175,195,283,459,192,85,59,-3266,-12943,9495,-318,476,555,-1819,147,414,157
2783,208,174,176,258,413,187,82,54,-3291,-12924,9508,-428,434,462,-1741,183,596,241
2807,200,176,154,183,366,116,50,47,-3329,-12888,9534,-584,331,341,-1567,222,874,405
2822,210,189,138,143,252,91,45,43,-3419,-12826,9571,-807,432,283,-1490,175,1292,588
2843,228,196,150,128,157,95,46,46,-3586,-12786,9539,-1053,1125,533,-1614,43,1612,215
2867,195,209,140,86,128,90,45,42,-3769,-12757,9477,-1296,1175,555,-1912,-27,1701,40
2888,172,189,146,84,114,86,43,43,-3911,-12699,9454,-1579,877,485,-1986,218,1762,387
2903,185,223,149,70,89,90,46,43,-4009,-12619,9461,-1905,713,528,-1981,512,1800,684
2926,191,258,141,57,76,81,39,36,-4113,-12571,9419,-2186,1131,571,-1994,426,1645,292
2942,168,267,116,60,70,71,41,30,-4253,-12559,9326,-2379,1366,751,-1925,167,1347,-155
2963,190,269,153,60,58,71,39,38,-4349,-12543,9259,-2546,1171,698,-1832,230,1150,-19
2986,206,278,170,65,60,80,41,48,-4398,-12510,9221,-2752,1026,445,-1832,399,1229,218
3002,205,251,167,68,67,88,43,49,-4473,-12488,9146,-2970,1172,419,-1758,377,1360,4
3023,185,215,172,63,61,88,39,49,-4620,-12483,9017,-3157,1529,560,-1590,126,1343,-394
3046,192,202,189,53,58,88,32,49,-4781,-12472,8888,-3324,1539,584,-1470,9,1290,-422
3062,172,188,170,51,58,90,33,44,-4894,-12433,8813,-3499,1201,441,-1450,71,1286,-30
3083,137,226,211,43,55,83,31,34,-4984,-12368,8762,-3723,1072,277,-1497,170,1517,221
3106,157,228,230,43,46,72,28,42,-5097,-12298,8688,-3969,1069,274,-1375,221,1624,166
3122,171,218,242,48,47,69,30,42,-5224,-12229,8596,-4209,1132,256,-1238,175,1652,56
3143,176,260,250,52,49,65,31,43,-5368,-12144,8507,-4449,1329,234,-1199,67,1715,86
3166,197,294,273,54,69,70,31,49,-5499,-12064,8415,-4676,1617,195,-1315,85,1611,48
3190,194,281,239,53,70,68,31,49,-5635,-11970,8321,-4917,1964,524,-1292,114,1693,121
3211,165,290,222,52,74,68,34,42,-5764,-11864,8243,-5151,2400,765,-1285,164,1491,301
3226,172,358,264,50,80,73,36,50,-5879,-11782,8171,-5320,2563,913,-1353,101,1156,211
3242,146,338,251,47,84,82,37,50,-5943,-11737,8099,-5457,2273,789,-1304,257,910,122
3263,125,359,218,46,76,83,38,52,-5960,-11737,7993,-5593,1743,462,-1288,500,924,-147
3286,134,341,213,45,75,87,39,55,-5977,-11775,7821,-5737,1411,334,-1209,692,1086,-523
3308,171,344,284,49,79,98,35,62,-6009,-11819,7622,-5878,1733,252,-1114,678,1050,-760
3323,153,270,243,59,80,104,36,63,-6060,-11851,7459,-5970,2011,448,-1071,416,772,-667
3346,165,257,256,62,82,104,37,61,-6108,-11859,7335,-6060,2085,418,-1112,282,746,-473
3368,160,181,269,67,82,99,36,54,-6134,-11856,7235,-6158,1922,260,-1043,283,714,-343
3383,163,223,284,75,88,98,37,56,-6153,-11834,7150,-6280,1897,295,-950,317,782,-147
3406,133,208,269,72,82,83,36,48,-6175,-11816,7058,-6393,1977,524,-963,355,765,-107
3428,136,229,282,66,83,74,34,43,-6212,-11811,6955,-6481,1992,549,-989,280,719,-261
3443,125,241,316,70,98,74,35,46,-6260,-11801,6856,-6558,1952,512,-909,191,688,-298
3466,121,255,314,72,98,73,37,50,-6316,-11787,6753,-6636,2030,485,-976,137,762,-348
3488,120,270,334,72,95,74,36,51,-6370,-11775,6650,-6708,2008,501,-961,136,738,-356
3503,115,263,296,75,100,81,38,52,-6413,-11775,6557,-6760,1928,568,-923,152,594,-319
3533,107,260,278,73,101,78,38,50,-6455,-11776,6482,-6788,1941,601,-953,59,475,-296
3548,104,256,237,81,94,78,36,47,-6488,-11778,6429,-6805,1870,471,-907,0,356,-271
3563,111,284,254,85,98,75,36,47,-6501,-11783,6395,-6816,1766,438,-843,33,226,-172
3586,100,233,201,80,112,69,35,39,-6496,-11796,6371,-6822,1763,491,-801,95,105,-96
3608,98,361,271,77,121,64,35,45,-6498,-11797,6362,-6826,1850,546,-766,22,77,-12
3623,97,361,277,88,132,71,35,46,-6502,-11791,6359,-6835,1879,531,-740,-3,87,20
3646,104,357,299,75,130,66,40,50,-6515,-11781,6356,-6842,1943,559,-770,-53,109,10
3668,89,346,310,69,142,68,36,51,-6525,-11778,6351,-6843,1893,567,-752,-35,76,-11
3683,84,353,329,75,140,71,34,58,-6534,-11779,6343,-6840,1798,576,-747,-19,64,-22
3707,75,228,308,76,127,68,33,52,-6542,-11777,6344,-6835,1740,548,-744,-55,53,12
3728,76,215,325,68,112,66,32,52,-6543,-11777,6349,-6828,1792,528,-748,-34,6,20
3743,67,220,320,88,153,72,28,49,-6543,-11778,6349,-6828,1810,529,-680,-8,4,4
3766,67,207,331,95,146,80,32,43,-6543,-11782,6344,-6826,1828,554,-693,22,2,-9
3788,63,198,324,88,137,74,34,34,-6543,-11782,6344,-6825,1871,542,-697,-5,6,-5
3803,64,190,312,87,140,75,34,33,-6546,-11780,6347,-6823,1877,537,-693,-26,-3,12
3826,80,204,292,88,150,78,38,34,-6546,-11780,6347,-6823,1853,522,-698,6,1,4
3848,80,184,276,74,116,77,40,34,-6542,-11781,6350,-6823,1825,526,-717,11,3,31
3863,85,188,225,65,118,67,37,34,-6536,-11779,6361,-6821,1829,504,-740,-20,-11,58
3886,112,208,228,68,124,71,43,46,-6530,-11776,6370,-6824,1846,537,-700,4,-3,77
3908,113,217,237,70,124,79,44,48,-6527,-11772,6378,-6826,1862,519,-704,-9,2,61
3924,103,198,250,64,109,73,41,46,-6522,-11770,6381,-6830,1879,539,-704,19,9,49
3946,102,191,235,63,107,70,39,46,-6518,-11774,6377,-6832,1856,540,-702,42,7,8
3969,101,182,245,59,121,71,38,46,-6519,-11775,6374,-6832,1863,512,-712,1,17,-15
3983,78,175,255,58,123,68,37,43,-6521,-11773,6370,-6836,1866,476,-693,1,37,-24
4006,81,170,220,57,123,60,37,41,-6518,-11772,6369,-6843,1872,481,-716,20,34,5
4028,85,177,222,63,125,63,38,42,-6515,-11771,6372,-6844,1873,511,-719,2,10,28
4043,84,178,217,61,136,63,39,43,-6513,-11768,6375,-6849,1890,482,-696,-1,14,21
7,Repeat 2,,,,,,,,,,,,,,,,,
31,79,158,193,64,112,64,36,36,-6513,-11764,6380,-6852,1900,517,-715,1,14,11
45,70,158,258,63,125,61,35,37,-6511,-11765,6382,-6850,1877,542,-732,4,4,26
67,55,191,239,59,127,57,36,34,-6513,-11759,6390,-6849,1885,533,-697,-39,-2,50
90,57,204,251,57,110,65,32,33,-6518,-11752,6401,-6848,1897,502,-697,-67,0,39
105,112,227,258,58,103,63,34,46,-6522,-11749,6402,-6848,1895,510,-683,-22,6,7
127,133,231,241,55,107,63,35,52,-6517,-11756,6390,-6851,1891,532,-726,70,26,-38
150,136,219,160,57,102,71,34,53,-6519,-11764,6375,-6851,1867,516,-718,43,33,-75
165,136,188,149,58,107,72,34,52,-6525,-11766,6364,-6851,1880,492,-697,1,38,-74
187,134,230,162,62,104,65,38,53,-6528,-11771,6354,-6850,1862,510,-692,20,18,-58
210,93,204,158,65,105,68,38,43,-6521,-11781,6348,-6845,1839,539,-719,55,-24,-24
232,53,199,196,71,111,73,39,36,-6517,-11789,6347,-6835,1825,533,-727,6,-41,-17
247,52,213,199,73,124,71,40,36,-6519,-11792,6350,-6826,1873,509,-693,-25,-46,-24
270,70,231,218,76,118,74,39,39,-6520,-11795,6345,-6823,1895,513,-691,4,-13,-39
292,70,191,199,75,123,74,38,37,-6518,-11801,6336,-6824,1843,513,-672,51,-1,-43
307,68,204,207,73,123,75,37,34,-6515,-11805,6330,-6825,1858,521,-698,34,6,-20
330,85,195,196,70,120,77,38,37,-6514,-11808,6327,-6823,1878,523,-725,11,7,-18
352,89,194,198,76,132,81,40,41,-6513,-11810,6324,-6823,1882,502,-737,4,13,-25
367,83,190,182,74,154,94,47,50,-6512,-11811,6322,-6825,1883,494,-772,3,43,-15
390,98,233,228,69,152,98,47,51,-6508,-11814,6321,-6825,1854,551,-774,21,29,15
412,111,221,229,65,150,98,48,53,-6504,-11815,6324,-6824,1851,546,-730,7,-3,31
427,100,224,199,60,152,93,44,49,-6503,-11816,6330,-6818,1875,517,-705,-22,-41,13
450,105,263,208,45,135,90,40,45,-6503,-11814,6339,-6813,1906,530,-683,-29,-48,31
472,108,264,256,41,110,73,30,35,-6497,-11815,6344,-6813,1900,539,-673,18,-47,42
487,109,233,216,48,114,66,29,34,-6495,-11816,6345,-6812,1877,572,-680,21,-28,31
510,107,248,214,63,139,68,30,37,-6495,-11818,6342,-6811,1883,553,-681,17,-12,-2
532,109,240,223,65,154,62,30,37,-6497,-11820,6334,-6813,1884,531,-674,22,7,-32
547,101,189,228,65,143,57,29,36,-6497,-11825,6326,-6811,1878,514,-712,26,3,-52
570,96,189,190,68,145,61,31,33,-6496,-11830,6323,-6807,1865,529,-725,14,-15,-26
592,104,190,240,66,138,61,30,37,-6496,-11833,6320,-6803,1866,538,-711,5,-11,-17
607,101,171,233,56,115,60,26,33,-6495,-11834,6318,-6804,1860,488,-724,2,12,-22
630,99,174,232,58,87,60,28,33,-6493,-11837,6316,-6804,1848,487,-704,13,-2,-22
652,102,167,260,57,96,68,28,38,-6489,-11840,6317,-6801,1849,512,-710,15,-24,2
667,111,161,254,55,96,69,29,42,-6485,-11843,6322,-6795,1856,538,-728,-1,-38,14
690,87,133,204,52,97,66,28,35,-6481,-11845,6328,-6790,1873,524,-720,-4,-45,22
712,76,136,220,53,107,65,30,36,-6476,-11849,6331,-6785,1860,517,-720,8,-43,4
727,91,138,242,51,102,65,32,40,-6470,-11854,6333,-6780,1860,536,-729,21,-38,10
750,86,171,195,55,105,57,34,37,-6470,-11854,6333,-6780,1871,539,-739,4,-16,3
772,68,167,185,55,110,61,33,33,-6470,-11854,6333,-6780,1909,513,-716,0,-14,-5
787,67,185,191,54,112,62,33,33,-6471,-11854,6330,-6781,1917,509,-717,0,1,-26
810,82,221,181,53,106,66,36,34,-6471,-11855,6331,-6780,1883,524,-733,13,2,-10
832,77,263,165,52,107,69,33,31,-6466,-11858,6329,-6780,1847,519,-725,30,-9,0
847,75,258,167,51,100,69,30,30,-6464,-11861,6327,-6779,1841,525,-734,16,2,-5
870,77,261,201,50,98,66,29,30,-6463,-11861,6327,-6779,1871,522,-726,-5,2,-6
892,79,257,204,66,104,71,31,31,-6463,-11862,6327,-6779,1879,514,-739,-9,-3,-12
907,73,245,203,65,101,65,28,31,-6462,-11865,6327,-6774,1862,535,-734,3,-22,-7
930,58,193,185,69,113,67,28,31,-6461,-11865,6327,-6774,1835,507,-731,9,-10,-7
952,57,172,179,70,110,69,30,29,-6460,-11866,6330,-6772,1848,512,-698,2,-24,6
967,117,182,148,71,102,68,34,54,-6458,-11866,6333,-6770,1880,511,-725,-10,-21,8
990,125,173,135,64,93,73,32,55,-6456,-11869,6331,-6769,1865,537,-742,18,-1,-7
1012,120,138,133,62,95,72,31,52,-6457,-11870,6329,-6769,1876,508,-725,0,4,-18
1027,120,137,120,55,77,66,33,51,-6458,-11868,6329,-6770,1867,495,-730,-13,16,-12
1050,128,172,165,55,77,66,32,54,-6459,-11867,6332,-6770,1878,503,-733,-17,4,4
1072,87,163,155,53,78,60,32,37,-6457,-11867,6335,-6768,1867,533,-746,-7,-8,20
1087,73,162,157,46,78,47,29,36,-6456,-11868,6342,-6761,1843,534,-739,-23,-36,25
1110,78,162,141,49,84,57,30,36,-6458,-11866,6350,-6755,1862,520,-716,-45,-36,19
1132,91,173,158,62,105,73,28,35,-6460,-11863,6357,-6752,1904,516,-726,-38,-21,15
1155,106,162,142,62,117,84,30,39,-6460,-11863,6357,-6752,1895,537,-725,2,-7,6
1171,103,146,171,61,118,94,29,32,-6461,-11864,6353,-6753,1889,531,-730,10,10,-17
1192,118,172,189,64,122,107,33,39,-6464,-11866,6347,-6752,1859,525,-738,2,18,-31
1215,118,177,196,63,121,110,32,40,-6468,-11864,6345,-6753,1837,523,-736,-15,34,-11
1230,125,193,245,53,121,105,36,48,-6468,-11864,6345,-6753,1863,539,-726,-9,3,6
1252,109,200,249,56,119,95,36,46,-6469,-11865,6344,-6752,1894,560,-737,-16,-2,3
1275,105,220,229,59,120,86,33,51,-6473,-11864,6344,-6749,1859,513,-725,-29,1,-24
1290,102,209,231,60,116,71,32,48,-6476,-11864,6341,-6748,1855,485,-712,-15,6,-37
1313,105,207,232,61,114,55,35,52,-6473,-11867,6342,-6745,1854,496,-725,5,-26,-12
1335,88,202,166,61,102,48,32,46,-6467,-11871,6351,-6738,1847,518,-757,-9,-49,23
1350,79,181,135,56,97,45,30,41,-6461,-11873,6364,-6727,1849,520,-742,-30,-80,40
1372,78,144,133,53,93,43,29,35,-6457,-11874,6379,-6714,1850,506,-734,-46,-93,35
1395,60,130,130,48,91,43,27,34,-6454,-11871,6396,-6707,1903,497,-752,-54,-68,51
1410,47,124,123,45,92,44,23,27,-6449,-11867,6415,-6699,1909,515,-748,-51,-77,69
1432,43,95,118,42,88,42,21,28,-6444,-11862,6440,-6689,1947,524,-797,-78,-88,94
1455,42,88,113,39,77,41,21,29,-6435,-11859,6473,-6672,1947,503,-833,-98,-124,110
1470,37,82,110,37,69,38,21,29,-6418,-11853,6526,-6646,1952,462,-912,-149,-188,177
1500,34,72,68,35,60,28,23,32,-6383,-11842,6619,-6608,1954,441,-1010,-221,-311,359
1515,33,67,47,43,48,21,26,43,-6326,-11819,6776,-6545,2019,434,-1124,-368,-545,636
1530,31,40,44,46,44,29,40,53,-6241,-11777,7020,-6445,1930,373,-1124,-575,-911,1016
1553,39,44,45,50,51,40,44,73,-6123,-11719,7338,-6308,1853,404,-1099,-701,-1279,1387
1575,60,57,56,58,57,42,45,143,-5974,-11656,7686,-6151,1858,453,-1112,-671,-1523,1589
1590,90,71,66,69,83,43,45,153,-5821,-11608,8020,-5960,1845,440,-1187,-683,-1725,1404
1613,119,79,71,78,94,50,50,158,-5699,-11570,8331,-5719,1986,464,-1160,-875,-1840,1121
1635,127,78,70,103,134,49,44,189,-5615,-11534,8597,-5476,2188,528,-1081,-930,-1683,868
1658,131,81,69,113,141,45,43,216,-5511,-11533,8804,-5249,2096,319,-1051,-641,-1641,576
1673,131,87,61,111,141,49,64,199,-5350,-11565,8983,-5039,1941,208,-1064,-257,-1750,490
1695,113,89,52,116,143,62,67,193,-5135,-11625,9135,-4847,1867,282,-1082,114,-1847,440
1718,88,82,46,127,164,62,64,188,-4895,-11714,9244,-4670,1677,252,-1133,379,-1824,241
1733,99,82,47,108,147,69,90,166,-4679,-11800,9341,-4478,1576,277,-1310,255,-1769,145
1755,109,78,51,100,145,72,116,186,-4522,-11875,9428,-4255,1585,213,-1412,-93,-1675,-7
1770,109,73,60,120,171,79,114,202,-4394,-11941,9520,-3991,1593,93,-1442,-375,-1751,-77
1794,118,72,63,120,165,75,115,204,-4254,-11995,9628,-3711,1582,85,-1520,-414,-1866,15
1815,117,72,64,112,170,79,114,205,-4090,-12029,9759,-3431,1337,173,-1552,-373,-1936,221
1830,99,74,65,124,192,77,103,199,-3952,-12038,9895,-3161,1142,166,-1508,-489,-1776,304
1853,82,74,65,138,201,77,94,194,-3884,-12051,9978,-2929,1378,161,-1511,-611,-1483,9
1875,115,80,58,124,187,77,84,180,-3821,-12092,10016,-2702,1451,173,-1706,-552,-1413,-284
1898,116,73,54,121,186,84,84,175,-3719,-12153,10030,-2512,1364,305,-1725,-162,-1367,-333
1913,113,72,53,115,162,85,87,175,-3603,-12216,10041,-2325,1053,405,-1798,-47,-1265,-292
1935,118,70,55,134,127,102,85,181,-3492,-12259,10072,-2129,797,268,-1762,-206,-1212,-172
1950,126,70,70,156,183,119,87,187,-3382,-12290,10109,-1945,907,142,-1780,-256,-1235,-139
1974,97,72,72,159,250,126,106,194,-3297,-12334,10114,-1777,1165,207,-1903,-248,-1175,-328
1995,85,69,72,156,253,121,105,196,-3207,-12380,10113,-1620,1172,284,-2021,-163,-1148,-338
2018,82,69,70,155,252,116,106,194,-3125,-12413,10122,-1461,898,383,-1969,-172,-1037,-217
2041,80,69,68,133,250,100,101,185,-3058,-12444,10129,-1290,757,427,-1932,-261,-990,-222
2055,70,67,53,88,201,81,91,127,-3015,-12474,10122,-1135,811,332,-1985,-365,-864,-301
2077,76,47,46,80,95,72,72,122,-2967,-12512,10106,-979,730,208,-2120,-415,-833,-390
2092,92,40,43,78,106,70,70,160,-2889,-12545,10103,-808,721,321,-2170,-312,-1026,-306
2115,130,45,47,89,135,83,82,185,-2815,-12554,10126,-617,652,531,-2154,-322,-1116,-100
2147,164,89,52,85,139,102,93,197,-2738,-12557,10153,-433,516,469,-2087,-321,-1065,-56
2152,168,95,52,91,139,101,84,200,-2649,-12575,10160,-242,492,428,-2090,-308,-1139,-208
2185,210,99,59,121,147,105,92,216,-2562,-12599,10155,-55,553,487,-2075,-268,-1165,-286
2197,236,112,64,143,137,119,95,201,-2465,-12617,10157,124,487,524,-2065,-186,-1170,-225
2212,255,128,62,139,119,136,89,181,-2363,-12632,10159,303,370,538,-2016,-156,-1152,-204
2235,261,109,64,140,125,129,88,187,-2282,-12645,10154,480,329,577,-1971,-225,-1076,-224
2257,316,116,63,134,122,130,104,199,-2214,-12663,10138,633,375,527,-2012,-230,-959,-282
2272,333,136,70,124,120,133,127,158,-2127,-12691,10112,769,304,379,-2144,-186,-926,-357
2295,319,184,91,97,119,137,144,155,-2021,-12717,10091,907,216,448,-2160,-76,-976,-326
2317,392,189,93,97,118,128,149,159,-1902,-12724,10091,1050,144,556,-2144,19,-1053,-168
2333,389,189,92,93,107,125,142,171,-1807,-12727,10088,1199,121,604,-2082,-78,-1014,-165
2355,382,189,98,96,106,131,135,216,-1730,-12739,10069,1334,134,619,-2042,-101,-903,-256
2377,358,185,114,122,127,153,122,235,-1657,-12751,10048,1462,142,499,-1957,-145,-881,-266
2393,385,138,100,130,158,141,103,228,-1583,-12756,10040,1549,188,457,-1983,-30,-760,-173
2416,298,119,99,133,171,141,95,225,-1510,-12763,10036,1590,219,460,-2008,138,-584,-146
2437,345,128,107,156,199,172,111,242,-1436,-12769,10036,1613,81,532,-2092,235,-444,-101
2452,325,158,141,202,268,208,116,223,-1354,-12769,10042,1652,-105,625,-2169,256,-468,-40
2475,318,169,155,229,341,224,119,207,-1270,-12770,10042,1703,-165,603,-2098,227,-498,-74
2497,293,195,159,243,343,232,119,257,-1205,-12778,10036,1729,-12,544,-1994,215,-407,-123
2520,303,206,160,250,337,233,127,280,-1162,-12795,10021,1721,12,551,-1993,243,-187,-175
2535,258,213,170,285,357,231,122,249,-1144,-12813,10005,1690,23,509,-2007,194,-10,-157
2557,255,199,145,273,399,216,124,219,-1153,-12832,9987,1644,50,529,-2130,123,144,-145
2572,294,214,114,242,370,197,113,220,-1155,-12856,9967,1575,62,397,-2172,168,215,-162
2595,280,184,109,227,366,187,108,168,-1161,-12866,9963,1511,-6,374,-2180,126,242,-36
2617,264,177,109,216,386,177,94,123,-1171,-12866,9970,1465,-123,405,-2236,59,235,57
2632,360,182,131,237,393,203,108,126,-1200,-12860,9976,1447,-152,481,-2240,-83,189,68
2655,376,198,159,291,404,213,112,156,-1219,-12852,9984,1447,-50,533,-2285,-79,28,69
2677,404,235,177,303,415,208,114,188,-1232,-12854,9982,1433,75,525,-2184,2,8,-27
2692,446,257,180,312,455,240,127,188,-1229,-12861,9976,1417,7,465,-2151,55,8,-58
2715,462,261,181,322,459,251,131,194,-1218,-12867,9970,1413,-72,440,-2122,39,-26,-54
2737,387,250,156,281,464,232,121,201,-1217,-12872,9963,1421,-43,517,-2121,-7,-66,-60
2752,396,244,129,226,434,211,109,181,-1218,-12872,9963,1419,-10,457,-2105,7,9,-12
2775,354,185,105,208,405,197,98,161,-1229,-12872,9964,1405,-6,459,-2153,-22,50,4
2806,327,186,106,208,369,175,91,175,-1244,-12880,9952,1398,-28,443,-2154,-68,59,-80
2812,314,182,106,211,446,180,96,178,-1246,-12884,9948,1392,-24,512,-2175,17,-4,-36
2835,342,198,109,217,443,157,92,197,-1250,-12890,9941,1377,8,515,-2136,48,35,-52
2857,324,193,111,198,397,159,104,196,-1263,-12906,9921,1360,19,459,-2116,-13,77,-141
2872,311,182,119,252,472,194,123,184,-1273,-12922,9899,1359,-58,569,-2133,1,46,-155
2895,295,163,132,270,501,196,124,166,-1278,-12934,9884,1348,-87,529,-2160,32,79,-99
2917,332,186,137,280,424,191,126,203,-1286,-12952,9865,1312,17,426,-2186,46,157,-135
2932,304,192,140,290,448,211,136,184,-1298,-12966,9850,1278,21,420,-2233,20,156,-104
2955,295,203,160,298,488,210,130,192,-1290,-12969,9847,1271,-39,444,-2266,27,-8,-25
2977,287,226,193,339,486,229,134,195,-1286,-12964,9852,1290,-86,501,-2208,-43,-93,32
2992,286,236,188,342,460,230,132,192,-1289,-12962,9853,1302,-42,498,-2116,-47,-57,0
3015,282,233,201,347,494,237,136,152,-1290,-12965,9849,1294,0,485,-2059,33,6,-33
3037,298,227,194,342,502,254,141,145,-1289,-12976,9839,1267,21,445,-2085,87,81,-77
3063,299,236,220,416,507,295,161,145,-1278,-12984,9832,1253,-60,430,-2195,67,26,-59
3063,299,236,220,416,507,295,161,145,-1278,-12984,9832,1253,-60,430,-2195,67,26,-59
3064,354,185,105,208,405,197,98,161,-1278,-12984,9832,1253,-60,430,-2195,67,26,-59
3070,327,186,106,208,369,175,91,175,-1244,-12880,9952,1398,-28,443,-2154,-68,59,-80
3072,314,182,106,211,446,180,96,178,-1246,-12884,9948,1392,-24,512,-2175,17,-4,-36
3085,294,224,203,368,470,269,150,136,-1271,-12984,9833,1253,-105,470,-2170,29,2,7
3097,287,230,205,351,535,258,146,136,-1273,-12985,9831,1246,-44,456,-2117,7,34,-8
3120,249,220,189,354,627,259,143,126,-1279,-12990,9826,1229,25,473,-2134,33,50,-44
3135,210,206,194,345,606,226,126,119,-1294,-12996,9819,1208,32,492,-2092,25,106,-46
3157,204,178,151,292,603,208,106,94,-1311,-13003,9811,1185,23,468,-2072,9,130,-48
3180,202,176,146,300,674,222,104,82,-1335,-13008,9804,1150,13,463,-2051,17,217,-26
3195,194,143,150,311,680,259,114,79,-1379,-13016,9794,1098,25,529,-2019,23,368,-39
3217,172,148,159,304,562,249,108,80,-1432,-13027,9779,1022,68,388,-2001,-7,497,-54
3240,162,152,150,295,555,254,109,72,-1501,-13032,9772,921,86,338,-1943,-12,659,21
3255,127,142,154,270,542,241,102,68,-1587,-13027,9776,796,56,302,-1833,-22,847,126
3277,120,135,155,272,418,224,99,67,-1684,-13011,9793,632,11,281,-1735,64,1093,252
3300,115,140,140,255,292,174,85,60,-1831,-12989,9808,407,175,291,-1639,58,1466,297
3324,114,135,130,233,283,162,79,53,-2034,-12964,9809,125,349,257,-1552,17,1910,287
3337,171,185,140,230,231,151,72,48,-2279,-12921,9810,-232,447,290,-1532,81,2381,405
3361,183,200,131,210,214,109,58,52,-2535,-12867,9799,-658,656,281,-1675,248,2724,435
3375,201,212,107,155,272,94,54,58,-2783,-12803,9774,-1123,741,194,-1915,395,2896,442
3397,218,228,115,148,295,111,61,61,-2985,-12719,9757,-1598,688,115,-2100,594,2821,572
3420,209,265,121,175,348,135,60,59,-3137,-12619,9750,-2078,852,67,-2240,803,2677,695
3435,167,237,128,192,376,133,61,60,-3270,-12519,9733,-2508,899,232,-2216,757,2420,625
3457,150,231,137,195,355,127,58,55,-3415,-12397,9730,-2903,980,300,-2044,563,2308,718
3480,157,246,149,193,302,119,52,47,-3559,-12254,9742,-3272,1084,197,-1808,437,2183,815
3511,149,239,149,192,296,104,44,43,-3720,-12112,9732,-3630,1336,163,-1740,354,2201,685
3533,150,214,150,157,230,68,41,41,-3912,-11992,9672,-3975,1679,338,-1729,297,2265,366
3540,149,290,240,130,186,74,37,41,-4150,-11893,9554,-4301,2062,577,-1752,175,2368,-11
3564,146,345,293,89,164,67,31,34,-4416,-11803,9410,-4591,2276,893,-1922,16,2354,-207
3577,109,327,295,79,146,67,29,36,-4652,-11736,9257,-4836,2192,1043,-1795,53,2065,-318
3600,81,321,301,64,85,63,25,36,-4864,-11720,9067,-5024,1971,790,-1640,82,1751,-708
3615,74,303,314,54,75,65,25,34,-5057,-11766,8809,-5180,1633,413,-1598,245,1607,-1224
3639,64,222,252,43,79,53,30,33,-5223,-11858,8493,-5332,1484,-76,-1456,474,1535,-1613
3660,56,112,177,54,108,69,39,38,-5358,-11957,8158,-5497,1618,-264,-1213,677,1489,-1653
3675,68,119,182,60,106,79,44,37,-5452,-12006,7866,-5717,1924,-138,-1054,731,1521,-1328
3697,75,152,198,63,120,86,48,40,-5547,-11992,7639,-5959,2121,74,-1029,662,1670,-663
3720,90,159,206,69,125,88,49,44,-5649,-11920,7455,-6235,2052,212,-1145,529,1896,-271
3735,104,179,243,72,119,85,46,57,-5730,-11849,7264,-6516,1941,408,-1158,655,1892,-216
3766,113,218,260,67,96,74,40,66,-5832,-11792,7054,-6755,1865,410,-1168,537,1798,-462
3780,116,252,271,64,95,62,35,67,-5944,-11755,6827,-6953,1725,294,-1182,460,1661,-690
3795,121,252,264,69,80,53,31,73,-6013,-11768,6611,-7079,1596,394,-1197,522,1365,-762
3817,112,255,282,63,79,51,30,87,-6061,-11792,6415,-7177,1695,425,-1124,515,1093,-716
3840,113,249,285,78,88,57,34,90,-6105,-11807,6254,-7257,1823,468,-977,403,881,-582
3855,103,210,273,89,113,62,34,82,-6135,-11813,6132,-7326,1937,530,-913,332,705,-389
3877,95,199,283,89,122,64,34,81,-6175,-11803,6033,-7391,2013,484,-778,195,634,-324
3900,91,194,293,88,139,67,38,81,-6232,-11784,5939,-7449,2008,481,-716,78,634,-356
3915,135,190,274,87,148,65,42,83,-6288,-11764,5841,-7510,2029,429,-708,88,661,-397
3937,126,197,324,80,142,62,39,74,-6336,-11755,5735,-7567,2018,479,-788,142,675,-422
3960,125,201,329,94,160,70,41,77,-6377,-11756,5632,-7607,1913,506,-764,156,574,-421
3982,121,176,327,113,169,83,41,80,-6418,-11752,5549,-7641,1854,522,-712,87,508,-344
3999,130,194,335,129,177,92,39,76,-6452,-11739,5493,-7671,1921,529,-658,17,411,-215
4020,94,211,322,133,173,101,35,55,-6467,-11737,5451,-7692,1859,588,-638,78,290,-113
4042,89,207,251,136,189,108,36,55,-6482,-11735,5414,-7708,1862,565,-640,48,257,-121
4057,90,227,302,128,177,104,36,55,-6502,-11733,5377,-7720,1875,551,-599,22,232,-155
4080,118,360,287,120,172,97,37,55,-6524,-11729,5344,-7731,1867,560,-572,2,214,-142
4102,110,359,301,103,171,90,38,51,-6538,-11727,5315,-7742,1861,572,-577,22,195,-100
4117,105,364,393,101,171,78,37,50,-6549,-11721,5294,-7755,1847,530,-528,15,170,-69
4140,109,370,386,93,169,68,39,46,-6561,-11710,5284,-7770,1842,562,-500,-21,160,3
4162,118,377,356,87,160,59,37,47,-6565,-11697,5281,-7787,1874,573,-523,-12,150,57
4177,92,246,360,79,158,57,34,41,-6570,-11690,5270,-7801,1888,594,-526,13,141,15
4200,81,225,381,79,143,57,33,38,-6575,-11684,5260,-7813,1913,595,-526,12,133,16
4222,74,211,331,78,142,59,33,40,-6582,-11678,5255,-7819,1875,571,-530,-26,110,1
4237,74,228,356,77,134,61,31,39,-6580,-11676,5259,-7822,1901,550,-562,-20,61,37
4260,60,207,346,71,134,69,32,31,-6573,-11678,5277,-7812,1896,549,-595,-50,-25,73
4282,67,278,359,80,157,72,36,37,-6567,-11680,5311,-7791,1880,523,-628,-124,-88,100
4298,82,287,316,85,154,70,36,47,-6558,-11678,5352,-7774,1876,565,-571,-123,-112,175
4320,87,296,295,88,149,69,36,46,-6543,-11677,5396,-7757,1844,567,-485,-88,-178,210
4342,88,302,332,91,148,68,34,44,-6533,-11675,5433,-7742,1876,636,-419,-62,-184,210
4357,86,304,331,94,150,66,33,44,-6530,-11674,5445,-7739,1953,628,-392,-7,-93,101
4380,79,257,321,84,142,69,28,38,-6532,-11672,5444,-7740,1985,560,-407,-2,10,-1
4402,93,242,346,72,161,68,28,30,-6538,-11671,5427,-7750,1962,542,-492,38,93,-56
4417,96,220,321,73,168,74,27,38,-6544,-11668,5407,-7762,1874,526,-500,39,130,-55
4440,92,186,261,77,159,76,30,41,-6548,-11661,5401,-7775,1850,515,-521,2,127,11
4462,96,173,301,76,149,72,30,42,-6552,-11648,5399,-7790,1908,555,-486,-12,115,58
4477,102,162,302,83,148,65,30,45,-6558,-11634,5403,-7804,1956,548,-495,-39,105,68
4500,75,162,258,87,134,68,30,49,-6565,-11620,5403,-7819,1927,513,-491,-40,130,40
4522,74,188,269,89,146,77,32,45,-6566,-11612,5404,-7830,1926,488,-545,-21,113,22
4537,68,182,259,86,144,77,35,45,-6572,-11604,5408,-7834,1927,517,-535,-54,83,25
4560,89,181,211,78,147,76,38,51,-6577,-11594,5421,-7835,1910,491,-520,-89,47,48
4582,90,184,221,71,127,77,43,61,-6573,-11591,5435,-7833,1935,496,-504,-43,-15,56
4597,102,199,278,73,135,84,46,58,-6570,-11588,5446,-7833,1936,509,-464,-27,-17,57
4620,98,166,278,64,131,73,46,56,-6569,-11584,5454,-7834,1937,524,-476,-22,4,52
4642,107,174,281,60,132,67,43,54,-6569,-11578,5462,-7837,1932,538,-451,-28,9,63
8,Repeat 3,,,,,,,,,,,,,,,,,
30,76,204,264,67,132,68,38,37,-6571,-11574,5465,-7839,1897,519,-468,12,15,-5
53,60,186,195,65,153,86,37,42,-6570,-11579,5460,-7837,1880,502,-475,17,6,-30
68,71,227,214,68,143,94,37,46,-6570,-11579,5460,-7837,1900,505,-460,-10,10,9
90,68,230,207,70,148,95,36,46,-6570,-11573,5466,-7840,1946,514,-460,-22,18,45
113,69,212,181,64,149,93,31,137,-6568,-11569,5471,-7845,1960,510,-466,-6,19,46
128,71,224,197,69,159,93,33,179,-6565,-11568,5470,-7849,1953,494,-468,13,20,9
150,77,240,213,70,130,74,33,181,-6567,-11565,5469,-7852,1962,512,-477,-7,35,4
173,70,214,233,71,133,62,32,196,-6569,-11566,5464,-7853,1937,537,-487,4,34,-9
188,69,246,227,74,152,70,32,196,-6577,-11565,5459,-7852,1890,541,-507,-24,63,-16
210,66,231,226,76,153,73,37,153,-6582,-11564,5458,-7850,1879,536,-464,-23,21,2
233,83,284,314,69,145,87,35,105,-6582,-11564,5458,-7850,1920,508,-471,-2,-3,-15
248,82,331,353,65,136,81,33,103,-6581,-11569,5451,-7848,1945,514,-476,25,7,-39
270,96,330,328,64,138,85,32,70,-6581,-11578,5436,-7844,1922,576,-472,57,7,-53
293,93,305,332,65,126,78,32,73,-6581,-11587,5421,-7842,1899,503,-464,54,11,-79
315,94,309,354,63,140,78,28,57,-6582,-11592,5411,-7840,1919,487,-457,25,8,-69
332,112,278,387,63,140,71,33,57,-6580,-11596,5406,-7840,1946,515,-455,29,1,-27
353,118,206,366,65,141,73,32,51,-6579,-11602,5400,-7837,1928,581,-497,25,4,-7
375,103,203,368,62,147,70,33,54,-6584,-11603,5396,-7834,1912,529,-464,-10,12,-28
390,108,212,365,56,138,74,34,47,-6587,-11605,5392,-7832,1916,524,-447,0,0,-33
413,119,216,352,60,122,73,37,50,-6587,-11607,5388,-7830,1924,536,-463,13,3,-18
435,97,174,250,58,126,64,34,51,-6587,-11611,5381,-7829,1897,553,-481,21,16,-17
450,90,175,208,53,130,58,31,49,-6590,-11612,5376,-7828,1912,528,-458,5,17,-27
473,124,181,227,60,119,69,31,63,-6591,-11614,5374,-7827,1897,493,-463,-4,5,-30
495,130,205,232,65,126,69,34,66,-6590,-11614,5374,-7827,1896,512,-451,10,-1,-13
510,124,209,220,64,136,74,29,68,-6591,-11614,5374,-7826,1907,559,-467,9,4,-3
533,118,206,175,71,133,72,29,71,-6596,-11613,5375,-7824,1919,558,-445,-28,1,6
555,127,277,240,72,128,77,30,75,-6600,-11608,5378,-7824,1941,513,-441,-36,7,2
570,110,322,292,63,127,71,29,74,-6600,-11608,5379,-7824,1934,523,-462,0,15,8
593,107,300,288,62,120,74,25,77,-6600,-11609,5378,-7823,1928,564,-495,9,11,6
615,118,290,305,65,132,78,29,76,-6605,-11609,5377,-7819,1922,560,-468,-22,8,-10
630,153,325,339,65,141,81,34,90,-6609,-11608,5377,-7818,1933,517,-446,-24,2,-22
653,145,273,301,69,142,79,34,93,-6609,-11608,5377,-7817,1928,536,-466,8,-1,-6
675,140,240,245,78,149,80,36,86,-6610,-11609,5376,-7817,1918,562,-475,7,-12,4
690,141,232,247,77,149,78,36,115,-6610,-11609,5376,-7816,1936,561,-458,-14,0,-5
713,127,238,227,72,126,69,36,142,-6616,-11609,5375,-7812,1921,530,-438,-29,-6,-26
735,99,235,215,67,104,79,33,129,-6618,-11609,5374,-7811,1933,528,-445,-3,-5,-18
752,96,236,212,69,104,81,34,126,-6615,-11613,5371,-7810,1909,550,-474,22,4,-3
773,96,217,211,66,100,78,33,132,-6615,-11613,5371,-7809,1908,545,-478,-1,-6,-7
795,86,227,210,67,98,76,33,107,-6617,-11613,5372,-7807,1914,511,-443,-17,-12,-10
810,88,227,219,67,104,74,32,87,-6615,-11614,5376,-7805,1942,517,-469,-15,-17,2
833,74,187,185,72,144,69,33,91,-6616,-11614,5376,-7804,1917,565,-474,2,-12,6
855,74,193,203,68,145,66,34,90,-6618,-11612,5378,-7804,1932,541,-459,-17,6,8
870,61,206,167,63,148,71,35,81,-6618,-11612,5378,-7804,1913,527,-446,-9,5,-6
893,71,217,173,59,146,68,36,88,-6618,-11612,5378,-7804,1913,529,-454,6,8,-9
915,66,228,168,58,150,75,35,71,-6616,-11617,5374,-7800,1904,545,-479,16,-5,-21
931,67,239,171,65,160,79,34,65,-6617,-11619,5375,-7796,1915,526,-451,-4,-20,-12
953,87,229,155,64,181,85,34,66,-6617,-11618,5380,-7794,1922,505,-448,-27,-23,6
975,101,276,160,63,174,86,34,62,-6616,-11617,5388,-7792,1938,519,-470,-27,-18,22
990,93,288,165,63,180,89,34,51,-6611,-11619,5393,-7788,1930,537,-494,-4,-24,21
1013,95,272,150,62,176,87,36,48,-6605,-11625,5405,-7776,1925,539,-516,-23,-73,28
1035,90,256,141,55,146,80,33,48,-6598,-11632,5425,-7758,1924,533,-505,-45,-129,47
1050,75,250,140,64,120,73,34,46,-6585,-11638,5453,-7741,1931,498,-512,-50,-154,85
1073,51,161,160,68,115,64,32,47,-6563,-11644,5492,-7723,1947,477,-543,-49,-189,132
1095,52,108,153,66,100,60,33,42,-6532,-11652,5550,-7694,1950,455,-606,-91,-267,201
1110,55,114,164,75,114,59,32,35,-6497,-11657,5636,-7655,2006,418,-689,-183,-349,285
1132,56,122,164,82,96,52,32,33,-6468,-11650,5740,-7613,2063,356,-726,-299,-350,326
1155,52,114,156,80,103,48,29,41,-6439,-11636,5860,-7566,2070,347,-749,-361,-394,398
1170,56,114,118,110,160,70,39,39,-6404,-11631,5992,-7501,2039,457,-694,-361,-556,464
1192,53,98,106,113,168,72,41,39,-6382,-11609,6131,-7441,2173,524,-672,-434,-526,543
1215,49,76,88,112,166,67,45,39,-6376,-11580,6264,-7380,2233,557,-657,-490,-492,503
1238,48,59,89,127,181,87,68,55,-6354,-11547,6434,-7304,2086,421,-671,-578,-637,623
1252,58,59,93,174,202,90,71,52,-6291,-11498,6683,-7211,1845,253,-689,-708,-894,992
1275,76,65,101,165,167,79,67,69,-6192,-11426,7018,-7093,1802,374,-758,-864,-1184,1507
1297,90,64,110,166,160,76,66,69,-6082,-11338,7404,-6935,1908,588,-848,-1052,-1473,1687
1312,88,64,112,193,158,80,66,77,-5988,-11282,7797,-6672,1844,618,-1010,-1334,-1912,1386
1335,91,64,120,208,198,84,48,77,-5915,-11245,8176,-6338,1943,450,-918,-1540,-2180,1072
1358,99,61,114,173,179,92,45,99,-5877,-11197,8513,-6006,2000,341,-935,-1599,-1975,849
1372,90,50,116,183,191,102,51,95,-5808,-11183,8791,-5690,1949,192,-895,-1252,-1972,605
1395,90,65,111,198,201,125,62,101,-5701,-11205,8998,-5425,1892,-27,-821,-761,-1832,375
1418,106,76,132,189,250,159,75,99,-5592,-11222,9131,-5280,1874,-55,-807,-305,-1396,241
1440,108,80,130,207,261,170,88,115,-5487,-11252,9220,-5171,1722,-26,-867,-95,-1129,114
1455,99,80,129,223,255,164,88,116,-5361,-11280,9317,-5066,1603,-89,-1047,-48,-1094,185
1478,95,98,127,227,293,189,99,134,-5205,-11309,9435,-4944,1546,-77,-1234,-25,-1231,297
1493,111,110,135,241,348,179,94,133,-5011,-11364,9567,-4761,1546,29,-1366,20,-1651,316
1515,103,106,111,241,337,164,88,134,-4778,-11452,9682,-4553,1547,173,-1553,184,-1899,186
1546,104,104,97,202,314,143,73,120,-4566,-11539,9790,-4315,1535,424,-1638,40,-1933,98
1553,122,103,98,186,315,145,88,137,-4390,-11627,9877,-4055,1576,391,-1613,-146,-1891,-80
1577,123,96,97,181,301,102,75,126,-4258,-11731,9923,-3774,1646,311,-1603,-321,-1806,-396
1598,124,105,83,175,263,96,79,129,-4136,-11845,9940,-3497,1470,184,-1613,-310,-1716,-576
1613,152,157,110,181,255,97,75,133,-3985,-11938,9976,-3246,1293,124,-1700,-168,-1694,-355
1635,152,158,112,181,240,94,75,133,-3843,-12009,10011,-3037,1306,151,-1621,-109,-1555,-261
1658,189,167,108,186,257,113,77,123,-3726,-12063,10046,-2850,1251,110,-1638,-185,-1363,-220
1673,210,177,105,169,223,129,80,128,-3619,-12121,10068,-2659,1251,146,-1813,-217,-1316,-292
1695,225,185,111,152,213,153,81,127,-3445,-12197,10089,-2457,1089,93,-1969,7,-1527,-321
1718,220,147,109,155,344,183,85,125,-3245,-12245,10151,-2219,997,267,-2090,10,-1787,-23
1733,223,146,112,164,367,184,86,122,-3100,-12275,10203,-2014,1095,421,-1919,-42,-1538,14
1755,188,137,113,157,362,176,87,112,-3009,-12295,10239,-1837,1004,301,-1785,-220,-1223,-49
1778,173,118,109,157,359,164,96,132,-2959,-12318,10254,-1670,1070,236,-1849,-388,-1058,-195
1793,137,72,93,145,352,143,91,131,-2917,-12346,10258,-1514,982,130,-1881,-437,-949,-274
1815,121,60,53,106,200,75,85,128,-2856,-12369,10268,-1365,834,265,-1953,-280,-922,-179
1838,121,61,48,105,153,82,87,135,-2799,-12382,10286,-1222,804,375,-1947,-242,-885,-84
1853,170,83,55,104,145,73,83,185,-2743,-12387,10309,-1104,766,374,-1932,-168,-786,-19
1875,166,82,54,101,144,71,65,170,-2679,-12394,10327,-1007,715,362,-1974,-70,-700,-22
1898,171,83,51,93,108,70,65,169,-2627,-12412,10326,-920,759,409,-1992,-46,-632,-136
1920,166,84,50,89,117,71,63,169,-2599,-12432,10317,-830,776,469,-2040,-133,-575,-189
1935,166,81,52,100,149,65,63,173,-2579,-12451,10306,-753,724,426,-2028,-146,-471,-183
1958,188,79,45,109,143,61,41,139,-2532,-12464,10305,-696,625,276,-2013,-45,-451,-112
1973,217,93,61,161,167,86,70,157,-2488,-12478,10302,-648,628,274,-2033,-31,-407,-119
1995,218,93,72,185,208,124,80,162,-2430,-12498,10296,-591,535,329,-2109,29,-449,-142
2018,219,93,74,193,233,123,81,161,-2371,-12502,10307,-525,504,373,-2132,4,-492,-10
2040,219,95,76,194,227,130,82,172,-2319,-12499,10325,-472,486,296,-2041,-18,-432,40
2055,167,81,82,201,257,160,93,149,-2279,-12496,10340,-434,517,249,-2034,-36,-349,27
2086,125,78,86,196,270,157,81,121,-2249,-12498,10345,-417,582,286,-2049,20,-252,-17
2093,117,89,92,208,251,139,70,112,-2239,-12499,10346,-419,609,398,-2066,61,-106,-10
2116,159,100,103,225,377,165,78,118,-2237,-12491,10356,-425,499,370,-2071,21,-11,70
2138,184,107,97,213,375,160,74,99,-2228,-12480,10371,-421,461,362,-2117,-1,-57,97
2152,179,105,97,232,371,141,68,90,-2224,-12485,10365,-419,506,456,-2163,50,-42,-37
2175,185,95,90,230,369,134,62,86,-2216,-12490,10361,-430,560,411,-2155,86,-24,-34
2197,201,96,88,206,392,142,68,90,-2216,-12487,10364,-433,538,332,-2075,-12,-33,16
2221,181,116,91,185,329,114,66,90,-2219,-12484,10368,-436,522,326,-2075,-28,-13,15
2235,155,121,113,240,343,151,78,86,-2219,-12488,10362,-430,496,325,-2086,-46,-41,-54
2257,165,120,111,217,369,148,74,110,-2232,-12496,10350,-417,544,426,-2134,-71,-46,-95
2289,154,141,120,220,387,168,86,116,-2230,-12502,10344,-409,513,358,-2104,-30,-63,-65
2295,135,145,129,230,409,170,85,118,-2225,-12509,10336,-426,512,313,-2087,51,28,-52
2318,151,119,120,237,360,175,85,119,-2212,-12515,10331,-449,558,296,-2177,91,14,-47
2340,146,110,109,191,384,156,79,110,-2214,-12520,10324,-446,525,401,-2179,-7,-27,-53
2355,137,116,124,235,446,202,93,113,-2208,-12519,10327,-430,472,362,-2134,-40,-95,5
2377,135,105,123,227,453,220,96,129,-2208,-12516,10331,-428,487,356,-2103,-26,-29,16
2400,165,156,124,234,445,243,98,144,-2207,-12517,10331,-428,511,326,-2088,-21,-31,-12
2415,135,161,129,248,499,249,97,140,-2208,-12516,10331,-431,554,334,-2100,-15,7,3
2438,146,163,124,254,546,260,97,150,-2216,-12512,10333,-450,557,346,-2086,19,56,25
2460,165,179,114,219,492,235,86,129,-2238,-12509,10331,-481,572,374,-2080,11,160,12
2475,190,191,107,215,498,205,67,106,-2261,-12510,10324,-499,519,397,-2105,-19,142,-26
2497,164,146,90,195,499,184,68,82,-2288,-12514,10312,-506,531,447,-2094,-55,111,-62
2520,175,156,90,204,466,188,72,76,-2316,-12519,10300,-517,522,406,-2082,-58,137,-62
2535,186,164,90,194,459,169,72,55,-2338,-12523,10290,-531,506,375,-2038,-47,133,-55
2557,204,179,92,197,554,181,81,109,-2367,-12528,10274,-572,537,328,-2018,5,268,-67
2580,190,179,100,220,680,263,95,120,-2392,-12533,10259,-633,501,286,-2012,74,363,-49
2596,189,189,115,260,714,336,112,120,-2417,-12537,10243,-714,562,310,-2010,153,429,-34
2618,192,180,116,246,764,358,116,122,-2456,-12537,10228,-799,619,311,-1989,114,470,-16
2641,172,168,116,247,724,361,116,124,-2511,-12531,10214,-884,642,301,-2007,34,542,3
2655,127,132,118,261,687,366,121,84,-2559,-12525,10202,-968,625,300,-2064,52,537,17
2678,118,106,105,231,595,323,114,67,-2614,-12526,10176,-1080,663,350,-2020,167,682,-36
2700,120,91,102,239,605,266,100,68,-2695,-12526,10139,-1209,706,433,-1982,162,843,-59
2715,97,109,112,239,545,227,89,63,-2802,-12530,10089,-1344,860,441,-2019,80,928,-142
2746,95,150,221,235,535,218,85,57,-2924,-12530,10035,-1479,929,390,-2004,-12,971,-169
2760,82,153,270,204,471,184,62,46,-3121,-12505,9983,-1629,916,463,-2017,-284,1347,-72
2775,76,152,287,204,388,158,59,43,-3345,-12467,9926,-1818,854,627,-1668,-285,1642,-25
2799,64,148,303,132,258,84,39,27,-3596,-12453,9812,-2038,1049,544,-1627,-246,1903,-336
2820,57,142,305,105,180,61,40,26,-3867,-12447,9655,-2311,1187,465,-1562,-126,2233,-499
2835,53,142,253,94,164,55,40,26,-4146,-12436,9469,-2635,1212,415,-1500,21,2528,-549
2858,52,160,205,91,140,52,39,29,-4425,-12411,9261,-3011,1258,211,-1568,163,2809,-542
2880,54,177,205,78,124,54,36,33,-4714,-12380,9018,-3413,1473,314,-1625,235,3006,-634
2895,73,232,199,71,88,56,36,38,-4958,-12349,8767,-3807,1399,352,-1670,411,2877,-624
2918,73,276,194,63,85,47,30,37,-5157,-12315,8535,-4167,1302,313,-1615,467,2591,-532
2940,80,266,206,71,78,58,32,36,-5328,-12271,8322,-4498,1227,309,-1592,449,2380,-432
2955,84,273,228,73,74,68,31,33,-5485,-12226,8121,-4789,1259,277,-1442,380,2150,-431
2978,87,302,240,69,69,69,29,30,-5649,-12178,7929,-5036,1547,415,-1385,218,1950,-479
3000,81,295,260,74,53,76,29,26,-5796,-12138,7744,-5248,1655,490,-1362,199,1732,-496
3015,83,288,314,83,62,85,29,30,-5915,-12099,7584,-5438,1634,439,-1265,183,1596,-404
3039,88,292,306,75,60,80,27,31,-6011,-12061,7437,-5617,1552,417,-1254,222,1512,-327
3069,84,280,304,81,66,79,26,32,-6096,-12022,7296,-5790,1580,382,-1226,226,1452,-309
3075,90,246,315,90,71,80,30,35,-6192,-11978,7166,-5941,1677,455,-1132,113,1338,-300
3105,99,210,293,87,77,78,30,36,-6282,-11922,7059,-6084,1873,577,-983,86,1170,-155
3120,101,166,237,79,72,70,30,34,-6352,-11869,6978,-6207,2078,568,-981,67,954,-77
3143,93,153,258,92,72,75,35,34,-6410,-11827,6895,-6321,2198,602,-979,121,868,-111
3158,96,211,351,112,83,77,36,40,-6463,-11800,6790,-6430,2254,603,-937,210,841,-243
3180,90,217,346,104,82,74,32,38,-6509,-11793,6630,-6562,2243,628,-849,470,974,-434
3203,74,217,344,105,81,66,34,37,-6555,-11801,6431,-6698,2123,522,-795,571,1067,-660
3218,68,230,416,110,94,65,32,38,-6608,-11817,6230,-6807,1917,538,-784,506,1011,-732
3240,80,268,424,108,107,77,30,41,-6677,-11813,6052,-6907,1909,651,-864,318,1067,-613
3263,78,228,388,93,111,84,33,37,-6743,-11793,5910,-6999,1933,680,-863,191,999,-437
3278,73,243,407,116,114,92,36,37,-6779,-11766,5811,-7091,1928,518,-787,172,827,-261
3300,80,247,418,118,146,99,37,43,-6813,-11742,5734,-7161,1880,544,-797,85,708,-205
3323,93,257,370,119,144,108,40,49,-6831,-11728,5676,-7213,1866,574,-779,98,534,-137
3338,89,218,352,108,133,100,39,50,-6831,-11730,5626,-7250,1859,622,-741,169,367,-106
3360,93,250,322,100,139,87,39,57,-6825,-11738,5588,-7271,1844,656,-721,152,242,-67
3383,99,228,348,77,144,84,37,70,-6823,-11743,5569,-7279,1838,702,-637,79,119,-5
3398,106,225,426,93,118,86,35,69,-6831,-11741,5558,-7284,1896,654,-604,-6,104,-28
3420,107,200,476,112,123,84,32,66,-6843,-11739,5540,-7290,1916,692,-535,13,95,-49
3443,100,207,472,114,130,80,30,62,-6847,-11743,5507,-7304,1939,686,-537,109,130,-86
3458,93,163,465,115,117,87,30,55,-6854,-11752,5465,-7316,1917,668,-542,125,148,-158
3480,91,200,459,113,125,81,30,37,-6858,-11765,5422,-7321,1856,651,-553,125,119,-175
3503,89,242,415,107,134,76,33,43,-6866,-11776,5387,-7322,1802,692,-546,91,101,-137
3518,73,242,332,83,132,67,32,38,-6866,-11783,5367,-7326,1788,593,-545,57,76,-89
3540,84,272,335,90,137,71,32,43,-6871,-11784,5356,-7327,1787,608,-575,-3,79,-55
3563,129,303,365,87,133,77,32,54,-6869,-11784,5356,-7329,1810,644,-561,4,41,25
3578,130,292,314,84,123,82,37,55,-6862,-11782,5355,-7340,1840,661,-518,44,46,64
3600,135,273,307,104,121,84,35,52,-6858,-11780,5357,-7345,1859,630,-528,14,28,39
3623,142,291,353,103,121,83,37,57,-6858,-11781,5352,-7348,1861,671,-553,17,47,3
3638,139,267,387,102,122,85,38,54,-6859,-11785,5342,-7348,1846,670,-558,26,47,-21
3660,116,238,471,133,126,84,37,44,-6863,-11785,5335,-7349,1830,631,-552,-8,56,-32
3683,111,250,481,136,127,84,33,42,-6867,-11779,5335,-7356,1859,621,-536,-23,70,12
3699,95,240,471,116,115,79,33,38,-6872,-11771,5327,-7369,1888,675,-552,3,122,19
3720,87,257,455,115,105,84,34,33,-6876,-11769,5314,-7377,1872,672,-528,25,97,-21
3743,104,247,451,111,107,77,33,38,-6880,-11771,5300,-7382,1837,631,-527,26,72,-53
3758,104,250,346,76,102,62,36,39,-6877,-11775,5289,-7385,1840,614,-535,44,49,-41
3780,109,227,327,72,92,58,34,38,-6869,-11783,5281,-7386,1828,661,-583,55,38,-4
3803,112,233,304,70,106,59,32,41,-6861,-11786,5280,-7388,1859,681,-536,48,11,40
3818,109,194,285,67,127,51,32,43,-6854,-11788,5283,-7389,1888,649,-538,21,-2,32
3840,107,215,239,73,118,61,35,47,-6854,-11789,5283,-7389,1906,638,-516,-15,-7,13
3863,93,219,205,67,118,67,36,52,-6854,-11789,5282,-7389,1902,683,-546,3,23,12
3878,92,212,193,73,121,66,38,54,-6853,-11793,5279,-7386,1869,724,-548,17,8,24
3900,101,220,206,72,129,72,43,57,-6852,-11796,5283,-7379,1843,665,-526,-16,-31,17
3923,109,239,219,74,115,73,45,58,-6850,-11797,5292,-7372,1839,620,-493,-21,-54,18
3938,95,242,215,71,147,67,42,63,-6847,-11798,5296,-7371,1880,640,-490,2,-33,23
3960,94,232,218,70,148,61,39,80,-6845,-11795,5302,-7374,1904,632,-470,-2,-13,39
3983,93,233,230,62,146,68,37,86,-6842,-11788,5313,-7380,1914,619,-503,-26,6,62
3998,96,241,232,65,125,81,31,84,-6837,-11781,5329,-7383,1888,616,-513,-33,-15,87
4020,94,261,223,59,131,83,27,85,-6833,-11775,5344,-7385,1867,651,-523,-33,-9,105
4043,93,251,233,57,112,84,27,77,-6830,-11771,5356,-7386,1886,673,-511,-18,-16,92
4065,89,245,219,58,113,87,28,52,-6832,-11766,5366,-7385,1885,686,-502,-39,-12,75
4082,88,248,213,58,116,83,27,42,-6835,-11761,5376,-7383,1881,640,-505,-53,-12,48
4103,67,232,183,55,122,63,26,56,-6831,-11758,5391,-7382,1896,577,-535,-40,-26,48
4125,54,177,172,75,126,70,28,51,-6819,-11759,5406,-7380,1916,585,-551,-4,-53,65
4140,48,152,148,86,120,76,29,58,-6806,-11759,5431,-7374,1930,617,-558,-31,-89,115
4163,46,142,136,97,129,83,34,61,-6796,-11749,5465,-7373,1988,607,-545,-73,-75,163
4185,59,129,175,126,136,88,41,60,-6780,-11739,5503,-7376,1945,580,-543,-55,-74,202
4200,71,116,215,146,141,88,45,50,-6767,-11723,5536,-7388,1944,622,-565,-50,0,232
4223,71,141,248,144,134,79,43,49,-6761,-11703,5565,-7404,1897,626,-562,-62,61,230
4245,76,156,251,163,138,77,42,39,-6759,-11690,5588,-7409,1883,619,-560,-75,25,159
4260,83,185,259,184,150,92,46,40,-6764,-11667,5605,-7427,1910,564,-511,-81,95,139
4283,70,187,249,174,149,86,51,44,-6771,-11637,5613,-7463,1938,580,-483,-48,203,154
4305,60,184,224,165,152,86,48,46,-6785,-11605,5601,-7508,1873,588,-475,0,312,103
7,Repeat 4,,,,,,,,,,,,,,,,,
29,62,154,214,173,170,103,54,51,-6811,-11564,5575,-7568,1917,539,-515,-25,235,18
52,63,129,222,168,203,115,58,56,-6822,-11546,5575,-7584,1900,565,-499,-58,153,49
67,66,138,219,165,213,127,50,50,-6832,-11528,5581,-7599,1903,531,-505,-79,141,56
89,66,158,223,160,206,133,51,46,-6832,-11518,5591,-7606,1865,482,-482,-51,49,48
