time,emg0,emg1,emg2,emg3,emg4,emg5,emg6,emg7,quat0,quat1,quat2,quat3,acc0,acc1,acc2,gyro0,gyro2,gyro2
272094,26,67,54,19,23,15,21,20,-8627,-12060,5080,-4774,1552,1135,-597,-64,-109,-64
272117,27,77,56,20,23,16,20,19,-8629,-12059,5092,-4759,1566,1132,-576,-76,-93,-38
272139,26,78,67,21,22,16,21,19,-8632,-12055,5106,-4747,1558,1130,-569,-80,-80,-15
272154,29,101,77,24,22,16,20,20,-8637,-12049,5118,-4741,1559,1155,-553,-74,-51,0
272177,28,90,64,24,20,17,21,21,-8643,-12044,5125,-4734,1559,1182,-578,-72,-29,-8
272199,28,90,72,23,20,17,22,23,-8650,-12040,5129,-4728,1553,1195,-576,-66,-18,-22
272214,27,86,72,22,20,16,23,23,-8656,-12038,5132,-4720,1535,1195,-571,-54,-20,-23
272237,31,100,70,24,20,18,21,22,-8658,-12039,5136,-4709,1507,1200,-576,-36,-47,-18
272259,29,88,64,20,21,17,22,20,-8659,-12040,5143,-4697,1507,1203,-569,-41,-64,-6
272281,29,88,66,21,21,17,21,21,-8661,-12039,5155,-4685,1505,1200,-562,-51,-80,15
272297,31,89,71,20,22,17,20,19,-8661,-12036,5170,-4675,1527,1193,-538,-47,-91,26
272319,34,88,74,22,21,18,19,21,-8660,-12033,5184,-4668,1525,1190,-518,-23,-88,37
272342,37,75,67,20,23,17,21,22,-8658,-12031,5195,-4664,1542,1221,-534,-11,-70,44
272357,37,76,63,20,23,23,20,22,-8658,-12028,5204,-4662,1558,1245,-526,-10,-49,41
272379,39,82,61,20,21,24,19,20,-8657,-12028,5207,-4662,1559,1244,-530,21,-33,19
272401,37,84,48,22,20,24,19,22,-8657,-12028,5207,-4662,1536,1233,-549,7,-14,-3
272417,33,80,48,20,20,23,19,20,-8658,-12028,5206,-4661,1521,1238,-568,-16,-6,-13
272439,25,77,46,21,21,24,17,20,-8662,-12027,5205,-4657,1505,1220,-569,-25,0,-12
272461,25,73,47,21,22,20,15,20,-8665,-12026,5206,-4653,1514,1208,-563,-26,-12,-6
272477,24,66,51,22,23,21,17,20,-8669,-12023,5209,-4649,1525,1206,-571,-37,-10,0
272499,24,62,47,19,22,21,17,20,-8672,-12019,5215,-4646,1530,1197,-553,-38,-28,13
272521,23,59,37,20,24,21,17,19,-8672,-12016,5225,-4643,1521,1198,-558,-29,-41,34
272537,23,57,35,19,21,21,18,18,-8672,-12013,5234,-4641,1543,1226,-571,-26,-33,40
272559,18,41,32,20,20,19,19,19,-8673,-12010,5242,-4639,1545,1233,-589,-36,-15,37
272582,16,32,23,19,18,16,18,18,-8678,-12004,5248,-4637,1537,1225,-568,-49,-8,28
272597,14,26,20,22,21,17,20,15,-8681,-11999,5257,-4635,1522,1196,-576,-48,-17,30
272619,17,29,21,26,22,30,29,20,-8682,-11994,5268,-4634,1515,1187,-563,-44,-29,49
272642,19,35,24,25,22,31,30,20,-8682,-11986,5284,-4636,1520,1177,-545,-37,-34,77
272657,20,36,27,24,23,33,30,18,-8675,-11981,5301,-4643,1518,1168,-538,2,-32,104
272679,21,37,28,26,25,33,29,20,-8664,-11976,5317,-4656,1511,1160,-525,35,-24,127
272702,21,37,28,23,24,33,28,19,-8650,-11972,5332,-4678,1527,1156,-535,68,14,147
272716,18,41,28,19,24,24,19,15,-8635,-11969,5342,-4703,1535,1174,-537,92,44,145
272739,18,49,30,20,23,22,16,16,-8619,-11967,5348,-4729,1547,1177,-569,94,63,131
272761,17,49,27,20,23,20,17,18,-8604,-11966,5351,-4755,1542,1181,-578,104,76,123
272792,16,49,27,17,21,20,17,17,-8587,-11968,5352,-4779,1560,1184,-595,107,66,107
272799,16,49,26,17,19,20,17,17,-8571,-11971,5353,-4799,1586,1180,-610,100,60,85
272822,16,43,25,17,17,17,16,20,-8558,-11972,5354,-4818,1604,1186,-602,84,57,76
272836,16,26,20,16,18,16,17,19,-8547,-11973,5355,-4836,1610,1181,-606,70,54,68
272859,17,24,20,16,18,14,18,18,-8540,-11972,5356,-4850,1610,1180,-605,46,50,61
272881,17,21,19,16,18,16,19,18,-8534,-11970,5359,-4861,1601,1168,-617,22,41,55
272898,18,20,19,16,19,16,20,20,-8531,-11967,5364,-4868,1600,1161,-625,-7,30,48
272919,19,20,19,15,19,18,20,18,-8530,-11963,5373,-4870,1599,1151,-619,-33,5,43
272941,18,21,17,16,18,17,20,19,-8530,-11959,5385,-4867,1576,1140,-601,-49,-26,45
272956,20,21,17,16,19,18,20,18,-8529,-11953,5403,-4862,1593,1128,-593,-63,-61,57
272979,19,21,16,18,18,16,21,19,-8529,-11946,5426,-4854,1579,1116,-578,-79,-84,75
273001,18,23,18,18,19,16,21,17,-8529,-11937,5452,-4848,1595,1113,-575,-86,-91,85
273016,18,23,17,17,18,14,22,17,-8531,-11926,5478,-4841,1598,1127,-562,-90,-93,96
273039,17,22,18,19,19,15,24,17,-8531,-11915,5507,-4835,1598,1109,-553,-87,-103,106
273061,17,24,19,20,19,14,22,17,-8529,-11905,5537,-4829,1589,1098,-558,-87,-108,112
273076,17,24,20,17,20,17,21,18,-8528,-11893,5568,-4825,1609,1103,-546,-82,-110,118
273099,19,21,19,19,20,20,21,20,-8525,-11881,5602,-4821,1627,1111,-564,-82,-113,137
273121,17,21,21,19,22,20,20,20,-8518,-11871,5639,-4814,1608,1118,-574,-69,-140,154
273136,19,23,22,21,21,20,18,19,-8510,-11862,5679,-4804,1607,1113,-571,-78,-169,160
273159,19,25,22,20,21,20,19,22,-8504,-11851,5726,-4786,1604,1108,-600,-123,-200,164
273181,20,24,22,22,20,18,20,21,-8500,-11836,5780,-4764,1600,1102,-608,-165,-222,186
273204,20,26,21,23,21,16,19,19,-8499,-11816,5838,-4745,1614,1079,-608,-192,-212,209
273219,21,25,20,23,21,17,19,20,-8501,-11791,5903,-4724,1639,1060,-616,-238,-232,222
273241,20,23,17,18,20,18,18,22,-8505,-11764,5968,-4700,1652,1071,-590,-248,-246,218
273264,18,21,19,21,21,20,16,21,-8508,-11742,6027,-4678,1660,1087,-579,-207,-240,199
273279,19,21,16,19,21,19,15,22,-8508,-11723,6077,-4660,1665,1082,-566,-160,-216,173
273301,20,22,19,18,18,18,15,22,-8505,-11709,6118,-4645,1654,1078,-562,-112,-191,139
273324,19,22,18,18,17,19,16,23,-8502,-11701,6148,-4633,1650,1074,-561,-70,-159,100
273339,20,22,20,22,20,18,16,21,-8499,-11696,6168,-4625,1645,1054,-566,-41,-117,52
273361,19,20,20,20,19,17,17,21,-8498,-11692,6180,-4619,1643,1049,-575,-27,-76,19
273384,18,19,20,21,19,16,17,21,-8497,-11690,6187,-4618,1643,1054,-585,-12,-42,15
273399,16,19,21,22,21,17,18,19,-8493,-11688,6193,-4623,1646,1033,-593,10,-22,24
273421,15,19,23,23,20,16,16,17,-8485,-11688,6198,-4630,1640,1054,-614,39,-6,37
273444,15,18,22,20,19,16,16,20,-8475,-11689,6202,-4641,1654,1060,-621,60,2,52
273459,16,18,21,20,19,18,16,19,-8461,-11692,6206,-4653,1662,1079,-641,79,5,61
273481,17,18,22,20,19,18,15,19,-8447,-11696,6207,-4666,1664,1080,-646,88,13,54
273504,17,20,21,22,21,18,13,19,-8434,-11702,6205,-4679,1677,1089,-654,97,23,34
273519,17,19,21,23,22,29,27,20,-8422,-11710,6197,-4691,1675,1079,-662,105,38,0
273541,19,19,22,22,22,31,27,17,-8412,-11720,6184,-4702,1680,1069,-665,105,53,-35
273564,19,20,23,24,22,31,27,18,-8402,-11731,6167,-4711,1657,1044,-677,101,61,-62
273579,18,20,23,24,24,32,28,17,-8394,-11743,6148,-4721,1655,1029,-678,100,72,-78
273601,17,16,22,19,21,33,29,18,-8386,-11753,6131,-4733,1660,1012,-667,95,76,-75
273624,16,18,23,18,19,23,17,17,-8379,-11763,6112,-4745,1662,1026,-675,92,82,-73
273639,14,20,23,19,19,21,19,18,-8373,-11771,6096,-4757,1687,1028,-685,79,82,-70
273661,12,22,22,17,18,19,20,17,-8369,-11778,6080,-4766,1716,1058,-708,58,81,-74
273684,14,22,22,17,18,18,20,17,-8371,-11785,6062,-4769,1715,1079,-720,28,82,-98
273699,15,24,20,19,20,15,20,16,-8377,-11791,6042,-4768,1708,1079,-745,-9,90,-122
273721,17,22,20,18,19,15,20,15,-8390,-11795,6023,-4761,1698,1080,-747,-58,88,-144
273744,17,21,18,17,19,15,20,16,-8408,-11797,6004,-4748,1691,1077,-735,-97,75,-164
273759,19,19,18,18,19,15,20,19,-8430,-11797,5988,-4728,1663,1076,-724,-131,45,-176
273781,19,19,19,19,17,15,18,19,-8453,-11796,5976,-4704,1643,1053,-683,-152,9,-176
273804,20,19,20,18,16,16,19,19,-8477,-11794,5968,-4679,1643,1038,-671,-167,-7,-175
273819,22,21,20,17,18,16,18,21,-8506,-11787,5959,-4654,1661,1040,-639,-192,-3,-181
273841,20,21,21,18,18,17,18,20,-8539,-11777,5949,-4633,1694,1048,-640,-209,25,-189
273864,19,20,21,17,18,16,17,19,-8573,-11765,5934,-4618,1688,1068,-633,-195,72,-183
273879,18,22,21,17,17,16,18,21,-8606,-11753,5916,-4609,1667,1113,-614,-168,98,-151
273901,16,22,21,17,18,16,16,20,-8637,-11743,5898,-4602,1669,1193,-618,-140,106,-117
273924,13,22,19,17,16,15,16,18,-8662,-11735,5884,-4592,1648,1257,-608,-110,65,-76
273946,15,22,18,17,16,16,16,17,-8679,-11735,5875,-4571,1626,1303,-605,-80,-20,-64
273961,20,27,19,17,18,17,18,15,-8690,-11743,5871,-4535,1582,1318,-583,-62,-117,-83
273984,26,26,17,17,21,19,17,13,-8700,-11757,5870,-4482,1480,1279,-530,-68,-220,-119
273999,29,34,16,18,21,22,18,14,-8713,-11770,5871,-4420,1435,1217,-474,-92,-278,-166
274021,40,56,29,21,21,22,17,16,-8728,-11784,5868,-4356,1411,1165,-455,-106,-273,-208
274044,50,80,35,22,23,22,19,20,-8746,-11797,5857,-4301,1371,1145,-419,-74,-217,-217
274059,56,101,44,21,21,22,19,21,-8753,-11814,5838,-4265,1347,1101,-421,17,-142,-206
274081,54,109,48,22,20,21,20,21,-8753,-11834,5811,-4245,1358,1057,-447,87,-65,-211
274104,55,109,49,21,20,19,20,20,-8762,-11850,5778,-4228,1390,1081,-485,43,-1,-232
274126,48,100,42,20,21,20,20,21,-8776,-11860,5742,-4220,1442,1112,-485,33,52,-230
274141,40,87,41,19,22,23,18,20,-8794,-11865,5706,-4216,1460,1184,-476,15,79,-185
274164,29,65,35,22,22,23,18,19,-8815,-11861,5683,-4216,1502,1258,-472,-18,74,-97
274186,36,68,43,21,21,26,18,22,-8831,-11852,5675,-4219,1535,1343,-453,-14,24,14
274201,36,72,45,23,25,27,17,24,-8836,-11845,5681,-4220,1497,1417,-456,21,-44,120
274224,42,75,51,22,28,27,17,22,-8838,-11840,5693,-4213,1493,1454,-428,37,-116,141
274246,41,75,54,22,26,25,18,22,-8842,-11839,5700,-4197,1472,1437,-419,26,-133,79
274261,43,84,59,21,26,24,18,21,-8854,-11840,5693,-4179,1435,1396,-383,21,-100,-11
274284,93,85,56,23,28,20,20,22,-8866,-11845,5672,-4168,1411,1323,-381,57,-34,-72
274306,114,95,64,21,23,16,19,21,-8869,-11855,5649,-4164,1365,1234,-390,107,-8,-84
274329,122,98,66,23,20,15,18,24,-8865,-11869,5631,-4158,1355,1168,-449,104,-27,-93
274344,124,103,71,24,19,18,16,24,-8861,-11881,5611,-4158,1387,1133,-479,97,9,-105
274366,125,93,69,22,19,20,16,25,-8852,-11895,5594,-4162,1388,1104,-510,114,18,-85
274381,93,88,74,24,20,20,14,21,-8830,-11911,5586,-4174,1405,1063,-543,157,3,-39
274404,68,78,70,27,24,31,26,25,-8800,-11923,5589,-4198,1427,1044,-542,189,3,55
274426,48,71,71,27,24,33,26,22,-8763,-11928,5606,-4236,1471,1084,-530,212,6,182
274441,42,67,82,30,24,30,26,22,-8719,-11935,5630,-4277,1566,1089,-545,247,-33,202
274464,35,71,93,33,26,30,26,21,-8673,-11943,5654,-4316,1609,1154,-576,254,-39,218
274486,30,62,89,30,24,31,26,21,-8622,-11953,5678,-4361,1633,1158,-560,302,-46,242
274501,28,63,92,30,21,19,14,19,-8569,-11963,5698,-4408,1623,1150,-556,326,-28,246
274524,29,64,92,28,23,20,14,20,-8517,-11973,5714,-4463,1607,1136,-569,342,25,257
274546,26,58,81,26,24,21,16,18,-8466,-11981,5724,-4525,1636,1112,-584,347,75,248
274561,26,54,64,23,24,20,15,18,-8422,-11983,5728,-4595,1685,1105,-634,312,161,230
274584,26,56,63,24,23,19,18,19,-8391,-11979,5721,-4672,1764,1104,-668,267,260,184
274606,18,46,78,26,25,20,20,17,-8368,-11970,5705,-4754,1811,1086,-725,223,353,148
274629,16,56,84,34,30,25,21,17,-8350,-11956,5686,-4843,1822,1037,-763,181,431,141
274644,18,60,82,33,30,27,21,17,-8338,-11935,5666,-4937,1811,989,-781,140,490,145
274666,17,59,82,34,31,29,22,17,-8327,-11914,5639,-5037,1833,972,-817,140,558,131
274681,18,57,90,36,40,38,24,20,-8315,-11893,5610,-5137,1827,985,-819,154,578,136
274704,22,58,81,35,56,54,28,22,-8303,-11875,5578,-5232,1818,956,-826,147,565,102
274726,24,46,69,30,56,55,31,25,-8291,-11857,5548,-5323,1765,952,-797,143,549,122
274741,22,34,65,34,59,56,30,24,-8279,-11836,5528,-5411,1787,942,-785,113,517,154
274772,22,34,63,35,64,58,33,25,-8269,-11810,5517,-5493,1813,933,-799,60,484,179
274786,21,29,46,35,62,55,30,23,-8257,-11784,5517,-5566,1830,935,-787,27,419,206
274801,19,24,30,35,52,46,28,23,-8248,-11760,5524,-5623,1813,965,-774,-8,336,203
274824,20,19,31,36,53,49,30,20,-8240,-11741,5536,-5661,1782,989,-746,-33,233,182
274846,24,20,35,36,52,50,32,23,-8240,-11714,5566,-5689,1760,955,-628,-114,120,220
274861,29,19,34,34,47,47,30,22,-8247,-11683,5599,-5710,1741,945,-607,-175,106,216
274884,30,20,33,32,42,44,29,22,-8248,-11659,5628,-5728,1731,961,-603,-118,79,201
274906,29,20,29,28,38,38,27,21,-8244,-11642,5655,-5743,1681,978,-554,-64,36,207
274921,28,20,26,24,32,26,22,20,-8242,-11631,5672,-5751,1670,1010,-537,-43,27,158
274944,29,19,21,18,28,19,19,17,-8243,-11630,5672,-5750,1660,1033,-542,-10,24,46
274966,27,19,20,18,24,15,18,21,-8243,-11643,5657,-5740,1653,1045,-555,44,9,-55
274981,31,22,23,19,24,22,25,33,-8239,-11665,5632,-5725,1642,1056,-555,98,-7,-119
275004,36,22,22,19,24,29,30,34,-8231,-11694,5601,-5708,1665,1049,-564,137,-25,-161
275026,42,26,21,20,25,29,32,38,-8223,-11729,5561,-5688,1715,1101,-604,165,-16,-221
275041,40,27,21,21,23,30,32,40,-8211,-11778,5517,-5646,1629,1025,-643,169,-102,-330
275064,40,28,21,22,24,31,34,37,-8191,-11839,5484,-5580,1577,1029,-660,158,-263,-355
275087,38,25,19,20,23,26,30,29,-8168,-11899,5472,-5496,1590,1028,-640,112,-415,-326
275109,33,27,20,19,21,20,25,27,-8149,-11954,5476,-5401,1630,1056,-651,28,-505,-298
275124,26,23,20,19,19,20,24,21,-8143,-11996,5493,-5297,1706,1072,-643,-89,-555,-292
275147,29,69,29,19,22,19,24,18,-8154,-12023,5511,-5201,1774,1058,-592,-175,-510,-300
275169,29,92,52,22,23,18,21,20,-8180,-12035,5516,-5126,1786,1050,-527,-196,-366,-310
275184,30,125,116,34,26,22,21,18,-8208,-12041,5494,-5089,1707,1042,-462,-90,-130,-295
275207,37,130,137,41,29,23,21,19,-8223,-12052,5447,-5091,1589,1089,-461,99,87,-227
275229,47,140,153,47,32,26,22,22,-8245,-12065,5369,-5109,1578,1218,-416,193,226,-269
275244,48,132,158,54,32,31,24,23,-8273,-12089,5258,-5121,1673,1265,-344,270,246,-471
275267,53,124,183,59,32,33,28,22,-8307,-12124,5098,-5143,1666,1285,-366,368,436,-680
275289,121,119,172,57,31,32,29,27,-8354,-12158,4903,-5176,1535,1313,-404,381,646,-778
275304,127,136,165,60,34,33,29,25,-8408,-12190,4694,-5209,1400,1326,-331,380,693,-813
275327,139,186,197,60,32,34,28,25,-8449,-12229,4490,-5232,1402,1257,-388,396,638,-855
275349,146,200,227,64,34,37,29,28,-8501,-12257,4290,-5250,1378,1319,-431,294,660,-833
275364,179,233,230,64,45,46,24,39,-8562,-12278,4092,-5260,1385,1419,-400,232,645,-833
275387,149,222,218,66,45,48,24,39,-8616,-12304,3903,-5255,1343,1407,-404,228,543,-847
275409,142,214,222,59,42,47,25,40,-8655,-12340,3720,-5237,1246,1304,-418,264,450,-870
275424,130,168,183,54,41,46,23,38,-8699,-12366,3554,-5219,1282,1253,-425,172,428,-841
275447,123,147,140,44,38,39,18,35,-8737,-12386,3404,-5208,1408,1231,-465,132,407,-805
275469,68,75,90,35,25,29,18,23,-8756,-12403,3286,-5212,1489,1208,-518,143,377,-632
275484,52,69,82,25,28,26,18,21,-8757,-12412,3213,-5234,1440,1234,-526,133,320,-332
275507,53,50,48,26,31,25,15,20,-8746,-12412,3189,-5268,1374,1238,-576,63,251,-24
275529,49,40,39,23,30,23,15,21,-8749,-12388,3216,-5302,1347,1234,-616,-179,181,209
275544,45,37,28,20,30,24,13,23,-8753,-12348,3297,-5337,1317,1157,-605,-332,58,443
275567,41,32,41,20,29,23,15,22,-8746,-12299,3436,-5376,1312,1078,-613,-423,-81,718
275589,36,34,47,19,25,20,16,22,-8724,-12239,3630,-5421,1334,1019,-626,-494,-214,990
275612,36,41,48,19,21,19,16,22,-8689,-12166,3868,-5476,1404,1058,-649,-545,-290,1264
275627,34,46,48,21,20,16,18,21,-8645,-12082,4139,-5534,1523,1122,-631,-574,-377,1452
275649,31,47,49,20,17,14,19,19,-8597,-11996,4418,-5579,1669,1195,-606,-573,-485,1473
275664,28,45,36,21,15,15,18,19,-8557,-11913,4686,-5599,1816,1272,-558,-581,-585,1350
275687,30,45,27,21,13,16,19,18,-8544,-11838,4926,-5574,1871,1424,-541,-655,-676,1116
275717,31,40,26,21,14,20,19,16,-8552,-11770,5150,-5501,1885,1545,-451,-718,-839,923
275724,35,45,42,19,19,25,19,16,-8573,-11711,5359,-5395,1858,1539,-398,-753,-952,739
275747,36,52,48,20,20,27,21,16,-8614,-11653,5546,-5263,1844,1508,-304,-808,-998,531
275769,38,60,50,19,24,27,20,18,-8677,-11598,5686,-5129,1877,1439,-212,-790,-887,252
275784,43,84,99,32,25,28,19,20,-8754,-11560,5757,-5004,1846,1344,-116,-642,-682,-100
275807,41,103,116,42,28,26,18,20,-8836,-11545,5746,-4908,1813,1248,-34,-385,-388,-442
275829,39,104,121,46,28,27,21,22,-8894,-11563,5658,-4861,1670,1150,-28,19,-43,-633
275844,36,107,123,46,27,27,19,22,-8919,-11616,5522,-4845,1516,1152,10,406,113,-714
275867,37,125,125,48,26,27,21,21,-8909,-11702,5357,-4843,1448,1146,43,733,129,-779
275889,33,124,104,44,25,25,22,17,-8875,-11812,5167,-4846,1375,1093,-21,921,170,-884
275904,40,138,141,48,26,26,22,21,-8825,-11927,4962,-4868,1328,1046,-83,1040,290,-888
275927,49,147,139,46,28,27,20,19,-8779,-12032,4753,-4900,1343,1087,-124,1009,375,-865
275949,80,147,137,48,31,27,24,21,-8731,-12130,4555,-4933,1415,1177,-255,950,398,-797
275964,86,146,160,46,31,27,24,20,-8686,-12211,4378,-4974,1474,1273,-365,840,429,-660
275987,89,162,178,45,32,29,23,21,-8651,-12268,4232,-5019,1497,1275,-390,673,416,-507
276009,88,144,142,30,30,28,22,20,-8610,-12319,4113,-5065,1411,1322,-471,614,385,-327
276032,111,159,152,29,28,23,21,22,-8553,-12371,4020,-5109,1460,1268,-567,599,306,-239
276046,101,160,164,33,24,22,15,21,-8483,-12432,3931,-5147,1452,1242,-702,618,287,-240
276077,97,147,142,32,24,21,18,20,-8399,-12503,3843,-5179,1394,1279,-791,677,254,-206
276092,96,119,110,31,26,19,20,21,-8298,-12586,3763,-5199,1316,1198,-819,745,154,-193
276107,94,116,108,32,27,29,30,24,-8185,-12678,3698,-5202,1225,1110,-833,757,14,-177
276129,57,76,87,30,27,29,31,22,-8071,-12768,3661,-5186,1164,1047,-869,674,-128,-105
276152,42,65,59,26,29,33,31,23,-7956,-12850,3667,-5158,1205,997,-899,553,-299,27
276174,37,60,52,27,32,35,29,24,-7727,-12976,3811,-5086,1366,816,-916,309,-557,304
276190,34,69,61,24,30,35,28,23,-7620,-13007,3933,-5074,1497,794,-975,179,-497,481
276211,33,74,86,25,31,28,19,22,-7520,-13015,4072,-5092,1604,853,-1012,112,-366,661
276234,48,74,101,31,32,28,20,27,-7430,-13002,4214,-5143,1620,1023,-993,105,-194,848
276250,49,77,102,30,31,25,18,25,-7347,-12980,4343,-5210,1658,1134,-979,136,-74,890
276271,49,88,112,31,28,23,19,25,-7278,-12962,4437,-5272,1741,1216,-992,159,-3,718
276294,48,79,117,34,26,23,19,25,-7224,-12955,4477,-5329,1738,1345,-1025,244,125,485
276310,49,71,102,33,23,21,19,24,-7175,-12963,4470,-5381,1690,1359,-1084,321,236,268
276331,36,66,86,26,20,22,18,18,-7139,-12972,4443,-5429,1666,1234,-1146,252,323,99
276354,33,60,86,25,16,21,19,18,-7114,-12977,4411,-5477,1668,1077,-1203,154,380,-2
276370,32,40,76,26,15,21,19,17,-7098,-12977,4381,-5522,1692,941,-1234,56,397,-67
276391,32,32,60,24,20,24,20,18,-7088,-12971,4368,-5558,1682,844,-1236,-50,346,-54
276414,29,23,55,26,25,27,21,15,-7082,-12955,4385,-5589,1647,739,-1181,-161,258,46
276430,24,30,69,33,31,29,22,18,-7070,-12934,4434,-5614,1634,696,-1130,-212,142,181
276451,17,65,144,58,33,28,25,22,-7048,-12910,4501,-5644,1654,753,-1097,-181,96,328
276474,17,76,169,76,36,32,26,23,-7038,-12864,4584,-5693,1666,835,-977,-229,151,496
276490,17,80,186,80,36,30,25,26,-7026,-12810,4673,-5758,1732,919,-836,-169,154,605
276511,17,83,217,81,33,27,24,26,-7015,-12765,4736,-5820,1786,974,-773,-76,160,494
276534,18,82,233,87,28,28,23,25,-7017,-12727,4757,-5884,1775,1073,-755,-7,273,335
276551,25,64,208,76,28,32,21,22,-7028,-12699,4742,-5941,1776,1128,-725,53,322,152
276571,25,57,199,60,29,32,19,21,-7051,-12683,4699,-5984,1754,1111,-770,48,349,-49
276594,27,52,186,56,31,36,20,15,-7085,-12672,4645,-6009,1706,1101,-811,-15,342,-164
276610,30,48,151,54,32,37,19,14,-7123,-12664,4599,-6016,1663,1025,-804,-81,256,-216
276631,33,48,125,41,31,36,20,15,-7151,-12663,4567,-6008,1607,967,-801,-95,134,-200
276654,31,39,110,35,31,31,20,16,-7173,-12666,4555,-5986,1571,953,-765,-112,3,-141
276670,31,35,86,31,28,29,22,20,-7189,-12669,4565,-5952,1546,936,-730,-144,-131,-66
276691,29,34,86,33,26,24,22,25,-7206,-12668,4597,-5909,1551,915,-658,-204,-246,-2
276714,26,33,86,37,30,25,23,27,-7228,-12657,4648,-5865,1589,948,-575,-262,-314,87
276730,22,31,78,35,32,26,22,27,-7257,-12632,4711,-5832,1706,997,-579,-325,-280,163
276751,19,31,72,37,32,26,21,26,-7294,-12596,4776,-5812,1767,1051,-580,-360,-199,215
276774,17,35,71,36,31,26,19,24,-7335,-12554,4838,-5801,1760,1066,-550,-360,-147,239
276790,16,34,66,34,29,26,19,19,-7376,-12514,4892,-5788,1697,1055,-540,-345,-128,208
276819,18,34,56,30,25,23,18,17,-7413,-12482,4938,-5772,1632,1039,-523,-298,-134,172
276834,21,34,54,31,22,20,17,16,-7448,-12459,4974,-5746,1620,1080,-545,-262,-158,111
276850,21,34,48,28,20,21,17,17,-7481,-12447,5002,-5705,1622,1084,-577,-247,-219,25
276871,22,22,42,27,24,19,19,17,-7509,-12446,5030,-5646,1617,1078,-611,-238,-304,-41
276894,23,20,35,24,25,16,19,19,-7534,-12451,5059,-5574,1590,1034,-627,-247,-376,-88
276910,22,21,31,25,28,18,18,19,-7556,-12458,5094,-5497,1535,979,-639,-259,-405,-91
276931,19,20,46,27,29,25,23,21,-7578,-12460,5135,-5424,1554,966,-645,-282,-404,-59
276954,20,22,56,28,29,25,23,19,-7605,-12454,5177,-5358,1617,1003,-667,-307,-360,-40
276970,18,23,59,31,25,26,23,19,-7635,-12442,5219,-5301,1669,1027,-687,-328,-306,-18
276991,18,24,65,32,24,28,24,17,-7668,-12424,5262,-5255,1685,1019,-652,-327,-267,8
277014,17,27,71,29,19,27,24,18,-7695,-12407,5298,-5218,1664,997,-619,-268,-229,8
277030,19,28,65,25,21,22,20,17,-7715,-12395,5324,-5191,1610,994,-613,-188,-178,7
277051,29,38,60,27,24,24,20,18,-7729,-12384,5344,-5176,1596,1000,-588,-123,-128,23
277074,53,60,69,24,24,24,25,25,-7735,-12380,5347,-5174,1546,1059,-562,4,-61,31
277090,58,67,63,24,27,26,23,26,-7723,-12387,5340,-5182,1544,1023,-575,137,-35,14
277111,74,91,76,26,28,25,23,31,-7712,-12399,5317,-5193,1617,1120,-574,202,-4,-37
277134,94,116,84,31,30,29,24,34,-7690,-12428,5277,-5199,1681,1128,-651,291,-12,-155
277150,104,124,85,30,29,28,25,34,-7674,-12466,5217,-5192,1695,1197,-689,302,-7,-276
277171,97,121,77,29,30,29,21,30,-7666,-12503,5144,-5186,1702,1171,-700,287,42,-358
277194,96,119,77,30,28,28,22,31,-7660,-12536,5064,-5195,1645,1117,-682,292,142,-360
277210,87,103,60,30,27,29,24,26,-7646,-12569,4983,-5213,1616,1023,-701,327,182,-361
277231,67,76,47,25,26,25,23,20,-7625,-12602,4899,-5245,1593,977,-700,375,243,-344
277254,46,59,49,25,26,25,22,21,-7598,-12632,4812,-5291,1589,972,-736,406,320,-302
277278,43,62,52,25,24,22,22,22,-7568,-12656,4735,-5345,1581,976,-767,391,349,-221
277291,40,67,55,28,24,22,21,20,-7539,-12674,4674,-5399,1590,979,-786,337,333,-141
277314,37,70,62,30,23,20,18,20,-7513,-12683,4630,-5450,1614,1007,-811,261,302,-62
277338,32,87,79,33,21,19,17,21,-7490,-12689,4602,-5493,1593,1048,-808,210,239,16
277353,30,88,96,34,22,19,17,20,-7466,-12693,4588,-5526,1608,1091,-831,170,175,70
277374,27,77,103,35,23,19,17,19,-7451,-12693,4582,-5551,1615,1116,-810,104,126,87
277390,26,76,107,36,23,17,17,18,-7440,-12694,4580,-5567,1632,1108,-788,77,75,65
277411,31,78,114,39,23,19,17,19,-7429,-12699,4573,-5577,1588,1107,-736,99,39,38
277434,29,59,103,39,26,20,17,22,-7417,-12706,4564,-5583,1565,1095,-705,114,6,15
277450,29,57,96,46,28,23,19,21,-7410,-12709,4558,-5591,1581,1070,-697,72,26,17
277471,27,57,95,47,27,26,19,21,-7411,-12703,4554,-5606,1626,1071,-698,28,70,32
277494,27,52,88,47,31,28,19,23,-7413,-12688,4555,-5636,1632,1021,-679,9,133,83
277510,25,45,84,45,34,29,21,26,-7414,-12667,4557,-5680,1628,1002,-646,15,191,131
277531,24,41,85,45,33,28,22,23,-7405,-12650,4554,-5732,1608,1017,-687,90,243,160
277554,25,51,72,37,34,28,20,24,-7397,-12635,4545,-5783,1586,1036,-693,92,264,145
277570,28,63,79,37,37,25,19,23,-7393,-12621,4530,-5830,1575,1070,-709,93,277,119
277591,27,68,81,34,35,25,21,21,-7380,-12618,4515,-5865,1568,1045,-732,126,204,87
277614,24,65,71,33,31,23,20,17,-7368,-12619,4501,-5887,1573,1048,-740,111,143,53
277630,24,66,65,29,30,22,19,19,-7355,-12624,4493,-5899,1583,1027,-732,92,71,37
277651,25,59,60,28,27,18,20,19,-7340,-12630,4494,-5904,1601,999,-738,72,7,39
277674,23,42,33,26,23,17,20,20,-7327,-12636,4503,-5902,1627,999,-740,36,-40,50
277690,24,34,35,25,23,14,19,19,-7313,-12640,4522,-5896,1654,988,-749,8,-83,82
277711,25,35,43,22,23,15,19,19,-7299,-12643,4546,-5889,1654,989,-756,-7,-103,103
277734,24,34,54,22,23,18,19,17,-7284,-12645,4576,-5880,1674,990,-767,-20,-123,123
277750,27,55,61,21,22,22,24,17,-7266,-12649,4602,-5873,1683,1010,-779,10,-108,123
277771,40,70,68,26,26,22,24,16,-7250,-12655,4621,-5864,1668,1049,-794,26,-96,101
277794,55,74,66,28,26,29,30,22,-7236,-12666,4629,-5852,1679,1056,-781,50,-105,41
277810,56,75,64,29,26,30,29,21,-7220,-12685,4629,-5830,1663,1052,-816,72,-128,-31
277831,57,78,56,30,25,28,28,21,-7209,-12706,4624,-5802,1635,1032,-791,63,-143,-85
277854,62,77,63,34,26,28,26,24,-7203,-12724,4616,-5775,1621,1027,-757,50,-139,-99
277870,70,70,56,29,25,29,25,24,-7192,-12742,4606,-5758,1635,984,-746,82,-112,-99
277893,65,101,69,28,24,23,18,22,-7183,-12756,4596,-5746,1659,965,-734,73,-85,-101
277914,63,100,76,26,23,22,19,22,-7176,-12767,4582,-5743,1686,959,-736,82,-35,-102
277936,63,100,79,26,24,23,19,22,-7170,-12773,4565,-5749,1690,963,-740,81,22,-96
277953,66,92,84,24,23,20,18,23,-7162,-12778,4544,-5764,1683,962,-753,105,81,-76
277974,48,90,93,28,20,20,18,22,-7153,-12785,4521,-5780,1689,985,-799,114,101,-79
277996,50,56,87,32,20,21,19,22,-7149,-12791,4494,-5791,1673,1034,-804,97,105,-93
278013,52,54,81,32,22,20,20,23,-7147,-12803,4461,-5792,1645,1058,-815,99,78,-137
278034,62,81,92,29,21,21,21,22,-7148,-12817,4430,-5785,1615,1036,-830,64,48,-162
278056,50,80,85,28,22,21,19,19,-7149,-12831,4407,-5770,1602,1038,-828,44,-6,-149
278073,51,78,76,24,24,18,19,19,-7150,-12846,4395,-5744,1605,1032,-831,3,-81,-134
278094,42,74,70,21,22,18,18,19,-7155,-12857,4395,-5714,1616,1031,-805,-48,-137,-100
278116,39,74,69,22,20,17,17,20,-7163,-12863,4407,-5681,1627,1023,-802,-105,-164,-62
278133,21,34,48,23,21,18,17,20,-7176,-12862,4428,-5650,1652,1020,-779,-151,-178,-24
278154,21,31,33,24,20,18,17,20,-7192,-12857,4455,-5619,1656,1026,-786,-184,-180,1
278176,20,27,31,24,18,17,17,20,-7212,-12849,4486,-5588,1636,1036,-783,-215,-177,21
278193,19,27,26,22,18,19,18,20,-7235,-12838,4524,-5553,1592,1019,-776,-254,-194,45
278214,19,45,30,24,20,18,18,21,-7260,-12824,4568,-5518,1575,995,-771,-287,-200,65
278236,33,52,39,26,21,19,17,22,-7283,-12808,4608,-5489,1552,1019,-738,-255,-172,87
278253,33,54,40,25,20,19,20,23,-7294,-12799,4644,-5466,1539,1007,-769,-177,-150,93
278274,34,55,41,25,22,19,21,24,-7308,-12791,4681,-5433,1555,1016,-794,-209,-192,68
278296,35,56,43,27,21,20,19,23,-7329,-12782,4715,-5398,1595,1070,-766,-224,-200,44
278313,36,42,40,24,20,20,20,21,-7347,-12775,4746,-5363,1604,1071,-748,-192,-207,29
278334,24,33,30,22,19,17,20,21,-7361,-12769,4774,-5333,1624,1062,-745,-162,-200,25
278356,23,31,28,29,25,23,17,19,-7371,-12763,4800,-5309,1628,1037,-729,-131,-178,26
278373,22,29,28,31,26,22,17,18,-7376,-12758,4822,-5294,1622,1018,-745,-92,-134,27
278394,25,50,36,36,32,24,17,17,-7383,-12749,4835,-5296,1637,1021,-723,-59,-38,36
278416,27,60,41,41,36,26,15,17,-7385,-12740,4834,-5313,1633,1036,-728,12,58,35
278433,28,63,43,42,40,27,15,16,-7385,-12738,4818,-5335,1600,1046,-769,64,129,-17
278454,29,68,45,38,39,24,17,17,-7386,-12737,4791,-5359,1592,1073,-779,90,177,-48
278476,30,71,50,48,50,32,21,20,-7389,-12736,4759,-5385,1571,1082,-790,85,205,-59
278493,28,58,45,46,47,29,20,21,-7392,-12740,4726,-5401,1557,1053,-784,82,165,-102
278514,24,47,42,42,44,28,21,22,-7395,-12745,4695,-5412,1569,1054,-781,72,130,-117
278536,22,42,40,46,45,29,20,22,-7402,-12746,4669,-5422,1628,1054,-771,36,112,-116
278553,19,33,38,44,43,29,22,21,-7409,-12746,4647,-5433,1673,1059,-782,17,101,-106
278574,19,28,28,35,30,20,21,19,-7412,-12748,4628,-5439,1661,1065,-804,26,81,-94
278596,18,25,28,32,28,19,21,19,-7414,-12751,4611,-5444,1641,1072,-801,30,65,-86
278613,18,24,30,36,30,18,20,17,-7416,-12757,4596,-5441,1598,1064,-819,10,43,-91
278635,17,25,34,32,25,24,29,18,-7421,-12762,4584,-5430,1575,1057,-820,-22,7,-100
278664,18,22,39,34,25,23,28,18,-7428,-12769,4576,-5414,1567,1040,-809,-43,-33,-107
278673,19,23,45,31,23,25,26,18,-7436,-12774,4572,-5392,1537,1026,-783,-63,-69,-106
278694,20,39,48,32,24,26,26,18,-7441,-12781,4575,-5365,1517,1019,-758,-64,-120,-87
278716,32,66,58,26,21,28,26,20,-7444,-12788,4582,-5340,1502,1032,-739,-46,-139,-55
278733,33,70,58,24,21,21,18,19,-7442,-12796,4592,-5316,1534,1036,-766,-38,-143,-36
278754,32,71,58,22,18,21,19,20,-7445,-12798,4603,-5296,1557,1069,-759,-55,-123,-20
278776,34,80,58,19,18,21,17,22,-7450,-12798,4611,-5282,1570,1085,-738,-47,-91,-11
278793,34,75,56,18,17,20,17,22,-7452,-12799,4613,-5275,1564,1093,-756,-14,-47,-11
278814,23,60,47,20,18,19,19,19,-7454,-12799,4610,-5274,1567,1099,-767,-1,-3,-19
278836,25,56,60,24,19,19,17,21,-7456,-12801,4602,-5274,1571,1124,-790,17,25,-27
278867,28,68,66,24,20,21,17,21,-7456,-12805,4590,-5275,1566,1160,-819,35,44,-32
278874,26,62,63,23,19,20,17,19,-7459,-12809,4578,-5273,1586,1139,-813,13,26,-61
278896,25,61,64,25,19,19,17,20,-7465,-12813,4565,-5263,1580,1141,-853,-22,14,-89
278919,26,64,68,27,19,18,17,20,-7475,-12818,4554,-5247,1588,1142,-854,-48,-7,-110
278941,24,71,70,23,20,17,17,17,-7489,-12822,4544,-5229,1577,1159,-863,-77,-13,-109
278956,22,60,62,22,23,16,17,18,-7505,-12824,4539,-5203,1564,1151,-837,-103,-60,-106
278979,23,61,68,26,25,17,17,18,-7521,-12828,4539,-5172,1557,1147,-821,-117,-107,-111
278994,23,65,71,29,32,23,22,20,-7539,-12830,4539,-5139,1551,1143,-795,-123,-121,-118
279016,21,56,63,30,35,23,21,19,-7561,-12829,4542,-5107,1548,1160,-783,-149,-116,-99
279039,24,48,61,44,51,30,24,23,-7584,-12823,4552,-5078,1526,1138,-746,-168,-116,-61
279054,22,47,63,48,54,30,23,22,-7608,-12815,4564,-5053,1520,1135,-721,-171,-116,-42
279076,20,41,58,46,54,30,25,21,-7632,-12804,4576,-5032,1502,1125,-687,-164,-99,-31
279099,21,55,57,46,53,26,22,20,-7654,-12794,4587,-5015,1489,1122,-668,-142,-87,-16
279114,27,60,70,55,57,30,23,22,-7673,-12781,4599,-5009,1498,1119,-637,-109,-58,16
279136,24,59,58,46,46,23,20,19,-7687,-12769,4607,-5010,1499,1124,-640,-70,-18,31
279167,23,60,57,44,42,23,21,18,-7698,-12757,4611,-5018,1497,1115,-626,-43,9,35
279174,25,62,56,49,46,25,21,18,-7707,-12746,4609,-5034,1500,1122,-644,-9,64,28
279196,29,60,75,48,42,25,21,18,-7712,-12739,4600,-5052,1493,1138,-666,28,93,17
279219,26,60,65,37,33,21,19,16,-7712,-12737,4585,-5073,1502,1120,-709,59,122,-7
279234,26,59,65,40,35,24,19,17,-7713,-12734,4567,-5095,1529,1131,-734,55,148,-22
279256,27,61,65,40,37,23,19,17,-7711,-12734,4548,-5115,1520,1135,-757,67,138,-30
279279,32,76,68,34,33,20,17,18,-7703,-12739,4530,-5128,1542,1154,-810,82,109,-36
279294,27,68,48,33,34,20,18,20,-7695,-12747,4515,-5135,1572,1170,-848,65,79,-47
279317,25,66,49,29,35,22,20,19,-7692,-12755,4499,-5134,1601,1213,-853,38,47,-74
279339,25,67,50,25,30,20,21,19,-7691,-12764,4486,-5126,1632,1190,-848,17,3,-107
279355,28,73,60,26,26,21,21,18,-7693,-12775,4469,-5109,1617,1195,-862,-1,-19,-152
279377,27,56,58,25,25,20,20,18,-7695,-12790,4454,-5082,1522,1169,-820,-4,-75,-162
279399,29,52,52,25,25,20,19,19,-7691,-12810,4446,-5046,1463,1137,-823,3,-144,-148
279421,31,51,51,27,22,18,17,18,-7686,-12827,4447,-5009,1455,1114,-742,6,-202,-115
279436,31,52,56,32,27,19,17,19,-7675,-12844,4455,-4974,1440,1101,-688,37,-241,-72
279459,31,51,49,31,25,20,17,20,-7659,-12861,4472,-4939,1401,1087,-674,52,-273,-20
279475,25,55,47,29,24,19,19,20,-7637,-12877,4494,-4910,1365,1062,-646,81,-279,32
279496,24,59,46,29,25,20,18,20,-7613,-12888,4519,-4896,1402,1078,-633,102,-233,86
279527,24,71,49,28,26,20,19,21,-7594,-12893,4538,-4896,1520,1144,-654,111,-153,99
279536,24,71,44,20,19,19,18,19,-7577,-12897,4545,-4906,1569,1202,-703,130,-65,77
279556,21,64,48,19,22,17,18,19,-7560,-12901,4547,-4919,1498,1203,-747,131,-5,83
279579,21,57,47,22,21,18,19,18,-7538,-12907,4548,-4936,1475,1187,-779,157,14,99
279603,21,61,49,22,20,18,18,16,-7516,-12915,4547,-4950,1504,1198,-803,157,14,79
279616,19,49,43,25,20,20,18,14,-7499,-12923,4544,-4957,1523,1219,-835,127,-1,46
279639,28,61,47,28,27,24,23,15,-7483,-12932,4542,-4960,1522,1202,-856,102,-15,36
279656,29,59,41,27,26,36,27,16,-7466,-12940,4544,-4962,1504,1167,-859,90,-18,40
279677,31,63,39,28,27,39,27,18,-7452,-12946,4547,-4966,1513,1145,-855,75,-19,39
279699,30,56,36,28,28,40,29,17,-7440,-12950,4548,-4970,1529,1157,-849,66,-8,36
279715,34,76,35,27,28,40,30,18,-7434,-12952,4546,-4977,1532,1157,-843,50,23,19
279737,27,68,25,24,22,38,27,20,-7427,-12953,4541,-4990,1550,1149,-873,51,63,17
279759,27,70,20,24,20,25,24,19,-7421,-12953,4534,-5004,1534,1142,-871,51,81,10
279775,24,68,18,23,19,21,21,18,-7415,-12954,4528,-5016,1512,1127,-878,47,76,15
279797,24,67,17,21,20,18,19,18,-7407,-12956,4526,-5024,1499,1104,-887,35,52,17
279819,19,41,18,22,18,17,17,19,-7400,-12958,4526,-5029,1503,1086,-896,13,34,7
279842,18,36,17,21,17,17,15,18,-7394,-12960,4528,-5031,1521,1085,-910,1,21,6
279856,16,31,17,20,18,19,16,18,-7393,-12961,4528,-5031,1525,1078,-902,4,11,0
279879,17,24,25,20,18,18,17,19,-7391,-12962,4529,-5031,1519,1066,-897,12,8,10
279902,16,25,27,21,17,17,17,18,-7380,-12965,4534,-5033,1501,1056,-897,23,2,22
279917,14,24,31,20,18,17,19,17,-7368,-12968,4541,-5037,1524,1060,-892,26,-3,31
279939,16,38,53,21,18,17,20,20,-7359,-12970,4546,-5041,1558,1095,-902,19,4,24
279962,17,42,58,21,18,15,18,19,-7350,-12972,4549,-5046,1551,1107,-916,20,16,24
279977,19,51,58,23,21,15,19,19,-7344,-12974,4555,-5045,1538,1104,-919,-1,-3,26
279999,20,51,61,23,21,16,19,20,-7336,-12976,4563,-5043,1541,1089,-902,4,-27,25
280022,22,51,60,24,22,15,19,21,-7330,-12979,4572,-5036,1535,1095,-885,-8,-58,15
280044,21,43,50,23,23,16,18,18,-7329,-12981,4582,-5024,1543,1107,-868,-36,-83,8
280059,22,40,50,25,22,18,19,20,-7332,-12980,4595,-5011,1543,1101,-848,-58,-90,9
280082,20,33,54,23,20,21,18,20,-7338,-12976,4608,-5001,1530,1093,-834,-73,-74,18
280097,21,30,50,22,19,19,17,19,-7344,-12970,4620,-4996,1543,1078,-813,-69,-52,18
280119,19,31,50,22,21,20,18,21,-7353,-12963,4627,-4995,1552,1093,-821,-64,-16,7
280150,21,43,46,23,19,20,19,21,-7361,-12956,4631,-4996,1542,1101,-835,-59,8,4
280157,19,42,42,23,20,19,18,21,-7369,-12951,4631,-4998,1539,1125,-841,-43,24,4
280179,19,39,33,23,21,18,20,20,-7378,-12946,4632,-4997,1542,1124,-861,-54,17,-7
280202,18,39,34,22,22,20,21,21,-7388,-12942,4632,-4993,1540,1133,-859,-64,7,-23
280217,19,56,34,22,20,19,20,19,-7401,-12938,4631,-4985,1547,1146,-850,-72,-8,-36
280239,22,57,31,22,20,18,20,20,-7412,-12935,4630,-4978,1543,1123,-847,-70,-11,-42
280262,24,62,32,21,21,17,21,20,-7421,-12932,4629,-4972,1554,1104,-850,-66,-7,-51
280277,26,61,37,20,20,16,20,21,-7432,-12929,4623,-4969,1555,1112,-820,-45,11,-62
280299,26,62,41,21,19,15,19,21,-7440,-12928,4614,-4966,1519,1115,-824,-29,18,-65
280322,27,60,43,20,18,17,18,21,-7445,-12929,4606,-4966,1487,1110,-808,-4,20,-46
280337,25,60,63,22,18,16,17,20,-7446,-12931,4602,-4963,1480,1100,-814,2,-6,-31
280359,22,57,63,23,18,16,16,16,-7447,-12932,4600,-4959,1485,1110,-807,2,-16,-26
280382,24,73,64,23,19,17,17,14,-7447,-12933,4601,-4958,1497,1076,-804,-5,-19,-15
280397,28,80,67,23,19,19,17,15,-7446,-12933,4599,-4960,1483,1107,-797,19,3,1
280419,26,71,69,23,20,20,18,16,-7441,-12934,4602,-4961,1479,1110,-803,27,-15,22
280442,24,63,57,21,19,21,18,15,-7434,-12936,4607,-4963,1475,1118,-792,41,-33,42
280457,24,64,53,20,18,21,19,17,-7426,-12938,4613,-4963,1482,1140,-771,50,-48,54
280479,21,48,53,19,21,21,19,17,-7423,-12937,4619,-4965,1517,1156,-775,29,-36,53
280502,16,45,46,18,20,18,20,17,-7425,-12931,4623,-4973,1578,1163,-789,6,4,37
280517,16,46,40,28,26,18,20,16,-7430,-12924,4620,-4988,1607,1166,-799,12,61,20
280539,19,50,37,42,38,20,21,17,-7434,-12919,4610,-5004,1581,1159,-823,16,92,-3
280562,21,56,46,55,53,22,22,17,-7438,-12912,4599,-5027,1582,1142,-806,31,126,5
280577,30,76,45,62,61,28,22,16,-7440,-12906,4584,-5052,1561,1151,-858,41,170,4
280599,34,87,51,64,68,37,23,19,-7442,-12897,4571,-5083,1578,1125,-840,28,189,21
280622,33,86,53,63,84,36,22,19,-7448,-12887,4556,-5116,1601,1129,-858,17,217,8
280637,39,98,76,108,112,58,31,25,-7454,-12875,4535,-5154,1578,1108,-832,28,255,-2
280667,41,97,81,139,147,69,34,28,-7456,-12861,4513,-5206,1575,1088,-853,47,330,35
280682,36,93,81,141,157,72,37,30,-7454,-12851,4494,-5249,1490,1060,-805,71,273,44
280698,39,80,84,164,160,76,37,31,-7443,-12843,4484,-5292,1405,1021,-766,96,235,109
280719,40,81,86,176,159,84,39,32,-7422,-12838,4493,-5327,1382,1000,-738,111,126,183
280742,34,64,70,155,147,83,38,30,-7398,-12831,4513,-5361,1445,1022,-729,103,79,239
280772,31,62,64,133,119,86,43,31,-7377,-12820,4535,-5396,1543,1045,-715,89,64,237
280779,35,68,72,131,114,85,41,32,-7363,-12809,4555,-5423,1641,1113,-728,60,31,198
280801,25,68,65,99,114,80,40,30,-7358,-12798,4561,-5452,1687,1143,-715,66,83,132
280824,27,68,62,87,112,72,38,31,-7358,-12789,4554,-5479,1696,1143,-767,47,126,56
280839,26,68,62,93,121,64,35,30,-7362,-12783,4541,-5497,1682,1144,-813,24,134,-3
280862,26,66,55,84,116,46,25,26,-7370,-12781,4518,-5511,1650,1129,-848,9,156,-64
280884,20,39,41,84,112,43,26,24,-7378,-12782,4496,-5515,1594,1081,-860,-9,128,-100
280900,21,33,40,85,103,40,25,23,-7386,-12788,4481,-5505,1529,1024,-849,-41,46,-115
280921,21,29,42,73,96,40,27,21,-7391,-12798,4477,-5477,1473,1003,-831,-68,-71,-115
280944,20,23,29,53,70,30,24,19,-7392,-12812,4484,-5437,1503,999,-842,-82,-170,-106
280959,19,22,30,43,56,28,23,20,-7391,-12828,4501,-5388,1518,1027,-815,-83,-264,-81
280981,22,75,59,38,38,24,22,21,-7388,-12844,4525,-5332,1514,1066,-761,-73,-343,-47
281004,21,79,70,43,42,25,23,20,-7380,-12858,4551,-5288,1537,1080,-712,-23,-324,1
281019,19,79,69,44,38,26,22,20,-7377,-12858,4574,-5270,1620,1101,-719,-32,-189,48
281041,19,79,71,48,38,27,21,22,-7380,-12854,4590,-5263,1668,1147,-735,-29,-116,46
281064,19,80,72,46,38,27,22,22,-7387,-12848,4592,-5267,1695,1185,-776,-17,-3,18
281079,17,35,51,44,45,29,22,20,-7397,-12841,4584,-5275,1642,1141,-753,-12,53,-23
281101,22,32,37,53,49,33,23,20,-7408,-12833,4568,-5295,1590,1082,-764,-1,138,-39
281124,22,32,35,54,60,31,21,21,-7413,-12827,4556,-5313,1554,1054,-803,1,138,-19
281139,24,35,32,50,68,34,21,19,-7410,-12826,4552,-5322,1480,1029,-809,7,75,14
281161,34,54,37,62,82,39,25,25,-7402,-12825,4557,-5330,1476,1006,-793,18,37,51
281184,33,55,38,63,82,39,28,25,-7392,-12826,4568,-5333,1491,1026,-793,17,-11,72
281199,30,52,34,50,80,38,28,27,-7382,-12827,4583,-5333,1525,1050,-782,16,-54,81
281221,33,58,35,53,74,38,28,29,-7373,-12828,4597,-5330,1569,1089,-753,23,-76,78
281244,34,60,38,63,87,45,32,31,-7367,-12829,4609,-5326,1625,1121,-750,24,-90,59
281259,26,48,37,62,88,47,31,27,-7363,-12827,4620,-5326,1682,1120,-733,19,-79,46
281281,25,47,38,64,87,50,29,27,-7362,-12824,4623,-5332,1717,1124,-714,36,-44,12
281304,25,46,37,66,86,50,28,25,-7364,-12823,4612,-5340,1746,1132,-763,39,17,-56
281319,21,40,37,66,85,51,29,22,-7372,-12823,4588,-5351,1717,1103,-797,30,94,-120
281341,20,33,32,54,64,41,24,21,-7379,-12826,4560,-5358,1629,1068,-820,30,110,-142
281364,20,25,25,45,45,33,22,20,-7383,-12831,4535,-5361,1562,1031,-827,19,95,-136
281379,19,27,26,43,37,26,20,20,-7389,-12836,4514,-5359,1540,1012,-851,-12,80,-139
281401,20,28,30,40,37,24,19,20,-7399,-12840,4499,-5349,1511,1013,-888,-70,55,-128
281424,20,26,31,32,33,22,20,20,-7409,-12840,4496,-5337,1481,985,-896,-114,32,-85
281439,19,26,37,34,31,22,19,19,-7417,-12837,4505,-5325,1442,966,-862,-126,1,-24
281461,18,22,37,31,26,21,20,21,-7421,-12835,4524,-5309,1417,996,-845,-120,-52,45
281484,17,21,33,26,22,19,19,20,-7420,-12835,4554,-5286,1481,1042,-849,-115,-135,78
281499,17,19,35,24,22,19,18,19,-7413,-12841,4589,-5249,1485,1096,-825,-85,-246,82
281521,18,22,35,24,22,19,17,21,-7397,-12856,4630,-5201,1418,1078,-780,-34,-349,99
281544,18,21,32,22,21,17,19,19,-7376,-12872,4672,-5151,1368,1106,-757,-2,-374,129
281559,19,29,34,24,22,17,20,20,-7361,-12880,4717,-5111,1432,1114,-707,-15,-353,156
281581,19,29,36,24,22,20,20,20,-7350,-12882,4755,-5086,1526,1144,-700,1,-279,147
281604,17,29,30,23,22,20,21,21,-7345,-12882,4778,-5074,1589,1209,-706,28,-187,125
281619,16,27,30,25,28,22,22,20,-7345,-12875,4791,-5078,1655,1262,-719,45,-75,119
281641,15,30,26,24,27,22,20,24,-7347,-12867,4790,-5097,1694,1261,-802,47,57,88
281664,17,32,28,25,27,22,18,21,-7357,-12855,4776,-5124,1696,1240,-844,32,166,38
281679,22,33,31,27,27,21,17,20,-7369,-12844,4753,-5156,1695,1197,-883,18,230,-16
281701,25,34,33,28,25,21,16,19,-7381,-12840,4722,-5178,1667,1173,-909,20,217,-90
281724,26,34,31,31,23,22,15,19,-7396,-12840,4690,-5184,1664,1164,-913,-14,152,-151
281746,29,33,33,33,25,32,26,19,-7416,-12843,4663,-5175,1652,1104,-889,-71,69,-208
281761,28,26,30,31,25,35,26,20,-7435,-12848,4644,-5152,1617,1039,-861,-99,-25,-228
281784,27,28,28,31,26,35,27,20,-7452,-12852,4631,-5128,1629,987,-786,-99,-81,-227
281806,27,28,29,32,27,35,27,22,-7467,-12855,4620,-5110,1640,953,-742,-84,-77,-220
281821,25,28,31,28,26,34,28,23,-7484,-12853,4607,-5101,1651,952,-736,-85,-32,-209
281844,22,26,33,26,23,25,18,20,-7499,-12849,4594,-5100,1609,939,-746,-81,23,-176
281866,19,25,32,26,22,21,16,20,-7509,-12845,4582,-5107,1542,929,-774,-56,74,-127
281881,18,21,32,25,22,22,16,20,-7512,-12843,4575,-5115,1464,933,-815,-42,87,-66
281904,16,29,36,23,20,21,14,17,-7507,-12843,4577,-5120,1391,955,-845,-25,55,6
281926,21,34,34,23,17,18,17,15,-7493,-12847,4593,-5116,1283,972,-852,-8,-11,92
281941,21,34,33,23,18,17,19,18,-7467,-12855,4625,-5106,1178,979,-877,10,-72,200
281964,23,33,36,22,17,16,20,18,-7434,-12860,4675,-5095,1137,998,-850,20,-137,317
281986,22,34,35,29,17,15,20,18,-7402,-12860,4738,-5083,1273,1048,-827,3,-202,364
282001,20,25,34,36,23,19,23,19,-7380,-12853,4803,-5072,1484,1162,-832,-35,-226,354
282024,17,19,37,36,23,19,21,20,-7370,-12842,4859,-5060,1660,1286,-800,-47,-230,307
282046,16,23,37,37,23,18,18,19,-7368,-12829,4905,-5051,1714,1341,-791,-41,-192,271
282061,21,30,36,42,33,21,20,18,-7374,-12807,4944,-5061,1732,1336,-755,-52,-81,283
282084,26,29,34,37,33,20,19,19,-7386,-12780,4971,-5086,1791,1305,-735,-45,22,245
282106,28,30,30,33,33,19,16,19,-7407,-12755,4973,-5118,1845,1279,-710,-24,108,107
282121,28,30,26,31,33,20,18,18,-7434,-12736,4946,-5149,1853,1237,-717,-6,180,-61
282144,29,29,26,30,34,23,19,19,-7460,-12730,4898,-5173,1764,1172,-749,33,220,-197
282166,25,20,23,25,26,21,17,18,-7478,-12733,4840,-5193,1650,1070,-787,64,243,-266
282181,20,20,24,29,26,23,17,18,-7490,-12743,4779,-5210,1570,1000,-814,84,244,-288
282204,16,19,24,34,29,25,21,17,-7496,-12755,4719,-5225,1520,960,-832,92,238,-295
282226,18,18,26,41,35,28,25,20,-7497,-12766,4667,-5243,1471,924,-867,85,249,-244
282241,15,17,25,43,46,30,25,18,-7492,-12776,4633,-5258,1427,910,-896,58,209,-152
282264,18,20,26,44,53,31,26,18,-7484,-12773,4624,-5284,1450,901,-874,16,193,-4
282286,19,25,30,48,60,34,28,19,-7468,-12764,4633,-5320,1534,909,-873,20,175,112
282303,23,27,32,48,60,31,26,20,-7446,-12756,4650,-5355,1600,960,-850,50,121,162
282324,25,29,40,49,60,29,23,17,-7425,-12751,4668,-5379,1609,1021,-826,60,50,157
282346,27,30,40,53,60,28,23,18,-7410,-12749,4688,-5389,1588,1074,-810,31,-13,152
282361,27,30,40,66,72,34,29,20,-7404,-12740,4713,-5395,1611,1088,-765,-27,-36,158
282384,26,26,38,63,70,31,27,19,-7406,-12728,4738,-5400,1647,1069,-777,-77,-24,128
282406,27,25,38,64,69,32,31,22,-7418,-12715,4755,-5399,1635,1065,-774,-115,-13,62
282421,29,26,30,60,69,35,33,24,-7433,-12702,4766,-5398,1612,1046,-762,-121,9,31
282444,28,26,30,59,64,36,34,27,-7446,-12689,4775,-5404,1611,1018,-750,-103,46,33
282466,28,24,31,43,45,32,32,25,-7458,-12674,4786,-5412,1598,1019,-750,-101,46,55
282481,28,25,32,47,40,30,32,25,-7470,-12659,4803,-5416,1591,1050,-722,-106,15,88
282504,26,23,32,40,38,28,28,23,-7484,-12643,4821,-5418,1602,1061,-710,-117,-8,89
282526,21,18,32,38,39,30,26,21,-7500,-12628,4838,-5417,1608,1079,-695,-124,-15,78
282541,20,18,33,34,37,27,24,19,-7521,-12610,4849,-5419,1615,1079,-661,-127,10,52
282564,19,20,36,37,38,26,21,19,-7541,-12596,4854,-5420,1599,1071,-676,-108,29,22
282587,18,20,35,32,38,26,19,19,-7556,-12585,4851,-5426,1610,1069,-687,-62,60,-3
282601,18,20,32,32,36,27,21,19,-7566,-12582,4837,-5432,1616,1089,-726,-9,80,-44
282624,16,20,33,31,29,23,20,18,-7569,-12586,4819,-5435,1587,1083,-738,39,64,-70
282646,15,20,40,30,24,22,20,17,-7564,-12598,4801,-5430,1561,1079,-753,73,10,-77
282669,15,20,39,22,19,20,18,16,-7552,-12617,4786,-5416,1565,1074,-771,99,-51,-98
282684,19,41,44,20,22,20,18,17,-7539,-12640,4772,-5393,1574,1090,-766,103,-112,-113
282706,39,72,56,17,23,20,17,18,-7525,-12664,4757,-5368,1572,1091,-759,110,-131,-126
282729,141,98,68,21,25,20,17,27,-7504,-12693,4732,-5352,1538,1123,-716,207,-101,-129
282744,163,108,68,28,34,27,19,30,-7467,-12737,4695,-5330,1503,1142,-737,325,-135,-167
282766,196,117,73,34,36,35,28,38,-7431,-12792,4638,-5301,1474,1157,-720,388,-147,-283
282789,362,204,107,43,51,61,40,65,-7398,-12855,4558,-5264,1408,1286,-702,457,-134,-362
282804,549,240,116,64,75,94,69,101,-7331,-12957,4435,-5212,1383,1271,-793,735,-185,-594
282826,656,267,126,72,84,110,85,147,-7281,-13081,4310,-5075,1232,1295,-1097,516,-432,-848
282849,760,280,137,73,82,113,88,175,-7272,-13221,4174,-4831,1080,1535,-1232,244,-787,-1147
282864,826,295,166,77,91,119,93,193,-7286,-13381,4034,-4476,1101,1632,-1307,43,-1298,-1530
282887,792,275,166,81,87,116,91,202,-7280,-13537,3908,-4116,1328,1591,-1235,112,-1560,-1652
282909,689,264,176,68,75,93,73,193,-7224,-13701,3798,-3757,1653,1267,-1176,328,-1714,-1582
282924,585,245,179,60,77,82,53,166,-7164,-13818,3722,-3511,1872,1110,-902,353,-1452,-1356
282947,444,233,184,57,81,85,47,136,-7105,-13896,3662,-3385,1863,1018,-764,414,-945,-976
282969,292,211,158,48,71,77,32,106,-7059,-13940,3615,-3354,1617,911,-709,363,-410,-604
282984,224,175,138,34,66,64,21,73,-7054,-13950,3566,-3375,1278,978,-774,149,47,-351
283007,176,131,111,30,56,60,19,52,-7093,-13930,3512,-3428,1103,1064,-867,-104,385,-225
283029,128,96,91,27,38,46,18,35,-7174,-13875,3478,-3516,1094,1075,-916,-391,619,-44
283044,99,87,75,21,23,28,18,29,-7274,-13780,3500,-3660,1173,953,-882,-614,807,327
283066,83,90,75,22,19,22,17,28,-7345,-13659,3588,-3882,1296,815,-853,-563,991,828
283089,86,69,86,22,21,23,18,29,-7388,-13512,3720,-4179,1350,876,-795,-432,1232,1326
283104,87,66,86,22,26,25,18,26,-7391,-13368,3877,-4483,1306,1057,-820,-223,1210,1653
283126,93,69,84,22,34,26,20,25,-7382,-13226,4018,-4785,1403,1128,-863,-137,1230,1601
283149,113,59,77,25,46,52,21,25,-7392,-13077,4126,-5078,1473,1260,-865,-184,1325,1460
283164,127,46,77,24,64,68,22,26,-7383,-12944,4219,-5349,1623,1329,-890,-63,1221,1363
283186,118,42,62,24,65,69,22,21,-7345,-12832,4312,-5591,1648,1351,-920,73,1046,1352
283210,129,42,61,24,64,68,22,19,-7299,-12738,4410,-5785,1631,1372,-933,72,799,1285
283224,140,33,54,22,61,68,20,23,-7264,-12661,4509,-5921,1598,1322,-906,-20,544,1113
283246,137,29,40,19,55,52,19,29,-7232,-12620,4594,-5983,1549,1343,-969,-41,225,846
283270,131,24,28,19,33,30,20,30,-7213,-12601,4672,-5985,1563,1309,-942,-120,-50,590
283284,137,26,25,17,40,36,23,32,-7210,-12595,4744,-5945,1631,1217,-864,-197,-267,353
283306,128,24,24,22,52,56,30,34,-7214,-12600,4798,-5886,1694,1118,-788,-194,-369,134
283329,108,24,26,23,53,66,31,34,-7221,-12604,4836,-5837,1774,1017,-656,-151,-362,15
283344,86,27,29,32,57,70,32,30,-7227,-12597,4855,-5828,1859,913,-642,-79,-147,-12
283367,60,28,43,32,55,70,33,28,-7217,-12589,4858,-5855,1816,830,-656,58,49,16
283389,41,32,95,85,52,67,30,25,-7198,-12573,4852,-5916,1822,772,-638,143,207,77
283404,30,77,197,149,47,55,27,22,-7202,-12511,4856,-6039,1969,743,-482,44,495,256
283427,43,231,571,325,108,66,31,24,-7245,-12379,4849,-6262,2235,905,-485,-83,1149,525
283449,58,279,632,343,115,68,31,31,-7349,-12210,4765,-6532,2161,1045,-45,-81,1570,338
283464,79,308,725,382,132,83,38,37,-7355,-12115,4589,-6821,2294,1259,-334,622,1833,149
283486,101,333,822,387,137,93,39,62,-7358,-12083,4218,-7108,2072,1111,-669,1220,2211,-764
283509,104,329,829,369,135,91,37,84,-7400,-12055,3779,-7356,1630,1062,-716,1162,2300,-1229
283524,103,248,638,230,93,76,33,93,-7478,-12040,3371,-7498,1414,1184,-873,822,1825,-1450
283546,107,194,584,203,84,71,32,100,-7546,-12091,3044,-7487,1227,1122,-921,518,1056,-1427
283571,111,146,466,116,52,49,21,122,-7591,-12162,2854,-7401,1178,908,-924,210,316,-1122
283592,104,71,249,60,30,28,17,155,-7602,-12248,2794,-7270,1239,779,-919,9,-299,-719
283614,106,54,151,44,30,29,18,176,-7580,-12345,2837,-7110,1295,745,-832,-87,-810,-327
283629,105,46,129,41,32,30,18,187,-7549,-12437,2980,-6921,1377,659,-720,-293,-1266,-26
283652,93,40,102,36,26,27,16,195,-7527,-12519,3185,-6704,1485,626,-652,-430,-1650,240
283667,72,34,85,34,29,27,16,187,-7476,-12598,3455,-6474,1573,678,-606,-468,-1905,551
283689,50,30,76,33,29,25,16,155,-7388,-12663,3771,-6269,1724,803,-611,-406,-1941,923
283712,39,30,66,33,27,21,13,122,-7300,-12703,4116,-6071,1875,799,-644,-516,-1945,1084
283727,35,44,59,34,24,21,23,110,-7208,-12730,4457,-5880,1966,837,-620,-512,-1888,1117
283749,44,45,48,31,23,22,24,102,-7133,-12729,4751,-5743,1957,984,-609,-426,-1573,1015
283772,44,41,36,30,17,25,25,96,-7086,-12718,4979,-5631,1955,1110,-631,-374,-1242,821
283787,49,42,22,28,18,26,27,103,-7076,-12697,5153,-5534,1915,1202,-674,-409,-945,619
283809,46,42,19,27,17,33,33,97,-7088,-12673,5277,-5454,1882,1216,-748,-404,-669,430
283832,44,26,18,24,16,32,28,79,-7103,-12661,5348,-5396,1815,1144,-712,-253,-472,201
283847,31,22,19,21,17,35,27,58,-7104,-12668,5372,-5353,1750,1044,-744,-61,-328,1
283869,30,23,16,18,21,33,27,46,-7104,-12689,5363,-5312,1694,1020,-799,19,-236,-162
283892,19,19,17,17,21,34,27,21,-7109,-12715,5340,-5266,1656,984,-818,17,-207,-269
283907,19,18,18,18,22,27,20,21,-7114,-12742,5318,-5216,1646,957,-853,-6,-222,-288
283929,17,20,19,18,24,26,20,23,-7124,-12761,5312,-5163,1624,954,-843,-79,-253,-225
283952,17,20,22,28,32,23,22,23,-7137,-12767,5329,-5113,1609,925,-815,-159,-278,-112
283967,14,21,30,28,31,24,22,23,-7157,-12755,5365,-5073,1625,923,-802,-248,-248,10
283989,14,21,37,29,30,20,20,24,-7187,-12731,5409,-5045,1627,971,-801,-298,-175,95
284012,15,24,55,31,33,19,19,24,-7223,-12700,5451,-5029,1616,1014,-798,-313,-93,142
284027,18,24,60,44,44,24,22,23,-7265,-12659,5487,-5030,1622,1008,-749,-307,9,163
284049,18,24,60,39,38,22,18,22,-7307,-12623,5504,-5043,1633,1045,-740,-232,96,117
284072,20,23,57,41,39,20,19,22,-7341,-12600,5497,-5058,1611,1052,-719,-121,130,11
284087,21,22,54,42,41,21,20,19,-7367,-12592,5471,-5069,1571,1060,-722,-20,133,-83
284109,20,20,37,45,41,21,20,19,-7385,-12595,5435,-5075,1554,1045,-720,41,110,-144
284132,20,21,31,33,28,17,17,19,-7394,-12605,5401,-5073,1517,1030,-728,67,50,-158
284146,22,30,38,33,28,18,18,19,-7397,-12617,5372,-5067,1524,1011,-722,87,4,-153
284169,31,58,45,33,29,20,18,20,-7397,-12630,5345,-5066,1550,995,-744,94,16,-140
284192,31,60,44,31,26,21,16,19,-7392,-12641,5315,-5075,1556,989,-759,128,60,-125
284207,33,60,42,23,21,21,15,21,-7385,-12654,5285,-5087,1556,979,-787,139,81,-119
284229,32,61,40,23,20,21,16,20,-7374,-12666,5254,-5105,1580,980,-810,159,109,-106
284251,31,59,33,21,20,20,17,22,-7361,-12677,5221,-5127,1594,1002,-832,174,138,-95
284267,22,34,22,20,19,22,21,23,-7350,-12682,5186,-5167,1689,967,-900,163,246,-92
284289,22,31,22,21,21,24,25,24,-7336,-12684,5146,-5221,1632,888,-1001,152,377,-77
284311,19,32,23,23,21,24,25,21,-7299,-12697,5123,-5267,1531,747,-1064,191,289,-35
284327,20,29,22,21,23,22,26,31,-7248,-12713,5136,-5285,1495,804,-1066,163,51,109
284349,22,27,21,19,23,23,26,34,-7200,-12725,5182,-5277,1505,926,-1024,73,-154,246
284371,31,28,21,19,24,21,25,38,-7168,-12731,5256,-5231,1498,1039,-1027,-92,-349,308
284387,77,39,21,18,23,22,25,51,-7171,-12719,5352,-5160,1558,1099,-1002,-349,-453,325
284409,82,37,21,19,23,24,26,52,-7195,-12693,5462,-5073,1619,1109,-1011,-526,-504,316
284432,85,37,21,20,21,25,27,49,-7224,-12669,5566,-4980,1646,1074,-943,-535,-551,242
284446,85,39,24,21,22,26,26,47,-7249,-12650,5652,-4893,1648,1029,-896,-456,-522,149
284469,88,78,30,21,20,29,25,45,-7272,-12636,5716,-4820,1625,991,-852,-373,-431,73
284491,58,103,44,22,18,26,24,33,-7288,-12628,5751,-4776,1636,944,-775,-210,-302,-4
284506,51,107,63,22,22,25,22,31,-7290,-12630,5750,-4768,1630,925,-748,5,-111,-76
284529,49,110,69,24,25,25,22,30,-7295,-12632,5719,-4792,1654,948,-775,103,121,-130
284551,49,113,79,29,26,26,24,29,-7304,-12636,5660,-4837,1626,952,-723,183,273,-197
284574,40,94,82,31,27,23,21,24,-7316,-12643,5568,-4908,1657,980,-707,292,455,-283
284589,33,59,76,30,29,24,20,20,-7333,-12655,5435,-4998,1692,975,-709,385,649,-446
284611,33,52,62,33,29,23,21,19,-7358,-12670,5259,-5111,1715,986,-717,461,875,-601
284634,29,47,56,33,27,32,27,17,-7387,-12685,5050,-5241,1743,993,-776,507,1070,-710
284649,26,38,42,30,25,32,26,16,-7419,-12696,4830,-5377,1744,996,-821,491,1168,-748
284671,23,28,32,32,24,32,26,16,-7454,-12697,4620,-5508,1762,1001,-893,400,1192,-715
284694,20,28,28,32,25,31,26,15,-7492,-12688,4435,-5628,1778,1013,-992,252,1154,-630
284709,16,28,25,28,24,33,25,15,-7536,-12666,4296,-5726,1726,1014,-1059,48,1032,-466
284731,14,25,26,25,26,23,17,15,-7581,-12633,4219,-5796,1647,996,-1113,-179,817,-246
284754,22,27,24,25,32,27,18,18,-7627,-12588,4210,-5840,1595,963,-1097,-386,569,-1
284769,22,26,23,23,37,34,21,20,-7663,-12542,4263,-5853,1519,966,-1033,-503,254,235
284791,27,26,25,26,38,37,22,24,-7692,-12497,4367,-5835,1514,999,-942,-580,-64,399
284814,30,26,23,26,39,35,23,29,-7719,-12452,4508,-5787,1580,1020,-905,-676,-317,480
284829,31,27,31,26,37,35,22,32,-7749,-12409,4668,-5713,1649,1040,-821,-727,-528,478
284851,28,25,31,25,32,32,21,31,-7781,-12372,4824,-5619,1665,1063,-700,-701,-669,404
284874,31,23,34,25,25,24,19,31,-7812,-12347,4960,-5512,1653,1087,-604,-620,-740,282
284889,32,21,48,24,20,20,19,28,-7848,-12327,5069,-5404,1653,1078,-511,-545,-719,139
284911,32,19,51,25,18,21,18,22,-7890,-12310,5150,-5306,1642,1086,-437,-471,-633,33
284934,30,18,46,25,17,20,21,18,-7935,-12292,5210,-5221,1615,1090,-373,-404,-533,-21
284949,30,16,50,27,17,19,21,17,-7984,-12270,5254,-5153,1609,1057,-321,-371,-434,-61
284971,26,16,48,25,17,18,20,13,-8032,-12247,5286,-5099,1593,1039,-319,-324,-335,-72
284994,21,17,36,24,20,16,19,14,-8076,-12224,5309,-5062,1600,1036,-323,-265,-242,-67
285009,16,17,34,23,19,17,20,15,-8115,-12201,5321,-5043,1603,1055,-364,-206,-132,-51
285031,16,17,37,23,20,18,18,16,-8150,-12178,5324,-5038,1602,1065,-400,-154,-34,-36
285054,16,19,37,22,20,18,18,17,-8175,-12161,5318,-5045,1597,1083,-451,-76,41,-29
285069,14,22,41,24,20,19,18,16,-8192,-12149,5303,-5062,1578,1102,-475,-7,100,-16
285091,14,22,42,27,17,20,18,15,-8201,-12143,5282,-5085,1602,1154,-530,60,138,-11
285114,14,23,41,27,19,18,18,16,-8206,-12141,5257,-5105,1610,1189,-538,95,128,-21
285129,15,25,42,28,18,17,17,17,-8210,-12143,5233,-5119,1634,1200,-557,91,95,-40
285151,17,23,36,27,22,20,16,17,-8213,-12148,5211,-5126,1636,1210,-577,79,60,-55
285174,20,22,36,25,30,38,22,22,-8215,-12154,5192,-5126,1600,1186,-557,69,22,-64
285189,22,21,34,24,31,41,22,22,-8219,-12157,5178,-5128,1582,1142,-530,46,13,-50
285211,23,20,36,26,33,43,25,23,-8223,-12156,5168,-5134,1599,1123,-542,32,33,-28
285234,23,20,32,25,34,43,27,23,-8225,-12154,5156,-5147,1628,1091,-576,37,71,-34
285249,24,25,33,29,35,47,29,23,-8229,-12153,5136,-5163,1712,1070,-619,32,121,-101
285271,25,32,27,30,35,38,28,21,-8251,-12152,5086,-5182,1778,1073,-613,14,232,-265
285294,24,32,26,28,34,36,27,20,-8275,-12156,5016,-5202,1569,1071,-622,51,336,-304
285309,23,31,23,28,33,34,25,20,-8283,-12164,4962,-5222,1412,1105,-636,96,286,-157
285331,23,31,24,31,36,34,24,20,-8280,-12169,4944,-5233,1414,1130,-601,70,117,2
285354,20,26,25,32,32,28,21,20,-8273,-12168,4958,-5232,1495,1158,-575,7,-46,110
285369,16,15,26,32,30,24,20,19,-8260,-12170,4984,-5222,1571,1172,-591,1,-136,122
285391,16,15,26,35,33,29,21,21,-8251,-12172,5008,-5210,1613,1173,-593,-14,-138,89
285414,17,14,25,35,32,29,22,22,-8251,-12169,5023,-5201,1631,1162,-571,-38,-91,49
285429,17,15,25,34,29,29,21,21,-8254,-12164,5031,-5202,1655,1140,-549,-22,-36,21
285451,18,16,21,29,30,27,21,19,-8249,-12165,5028,-5210,1636,1109,-573,47,15,-2
285474,19,16,20,30,26,26,20,19,-8237,-12171,5017,-5224,1592,1090,-577,108,48,-8
285496,18,18,19,31,21,26,25,18,-8221,-12181,5006,-5238,1575,1086,-605,130,50,-8
285511,18,20,20,33,23,30,29,16,-8206,-12191,4997,-5247,1566,1104,-615,109,34,2
285534,18,21,20,34,27,32,29,17,-8194,-12197,4994,-5253,1590,1109,-633,75,16,9
285556,18,21,22,44,37,38,32,20,-8186,-12202,4994,-5255,1596,1116,-630,43,-2,13
285571,19,23,23,42,42,40,32,21,-8179,-12200,5001,-5264,1638,1117,-603,24,4,55
285594,19,23,23,40,43,37,27,20,-8172,-12195,5009,-5277,1650,1112,-598,25,17,77
285616,19,23,24,39,45,33,23,20,-8163,-12192,5015,-5293,1631,1105,-619,37,40,81
285631,18,22,26,39,51,34,27,21,-8152,-12189,5020,-5313,1601,1087,-629,54,70,96
285654,17,24,28,34,55,38,24,21,-8142,-12181,5021,-5347,1612,1090,-605,71,137,125
285676,15,22,28,35,54,41,24,22,-8131,-12175,5016,-5382,1633,1097,-624,90,160,103
285691,15,22,28,45,55,48,26,23,-8120,-12167,5004,-5425,1666,1076,-684,89,244,83
285714,16,28,28,46,54,48,27,24,-8108,-12164,4990,-5465,1639,1049,-686,101,229,61
285736,32,81,36,48,54,48,24,24,-8093,-12162,4985,-5496,1587,1052,-656,91,156,96
285751,41,89,37,50,46,42,24,25,-8072,-12165,4987,-5517,1542,1102,-614,126,65,140
285774,43,91,38,49,48,40,25,25,-8045,-12181,4993,-5516,1543,1130,-642,139,-60,95
285796,43,93,39,40,45,31,24,25,-8037,-12197,4995,-5492,1601,1144,-668,26,-116,-29
285811,43,96,39,38,46,31,23,25,-8039,-12211,4987,-5464,1637,1123,-610,-2,-116,-122
285834,34,73,40,38,38,28,23,25,-8037,-12230,4968,-5441,1634,1065,-575,66,-103,-184
285856,24,66,44,30,35,28,22,23,-8028,-12252,4947,-5425,1632,1030,-557,120,-92,-180
285871,21,62,43,29,28,22,18,22,-8015,-12274,4925,-5413,1636,1071,-585,137,-75,-156
285894,20,60,43,29,28,23,18,20,-8005,-12293,4911,-5399,1634,1062,-601,100,-84,-133
285916,19,51,45,30,25,22,17,19,-8000,-12306,4903,-5385,1628,1069,-608,48,-82,-103
285931,16,27,39,25,24,23,20,18,-8001,-12311,4902,-5371,1621,1066,-619,-15,-71,-73
285954,14,21,29,25,26,24,21,15,-8004,-12313,4906,-5358,1613,1077,-632,-39,-69,-40
285976,17,21,30,33,32,26,21,15,-8007,-12312,4915,-5348,1622,1063,-636,-57,-66,-13
285991,17,21,31,41,43,31,21,14,-8009,-12303,4928,-5354,1655,1057,-626,-56,3,46
286014,17,21,28,45,54,35,22,14,-8009,-12290,4938,-5375,1644,1064,-640,-25,84,100
286036,17,20,27,55,73,36,20,18,-8006,-12274,4949,-5404,1646,1077,-601,3,98,143
286051,23,22,36,74,88,50,28,25,-8004,-12250,4956,-5456,1675,1083,-602,16,224,201
286074,22,21,36,91,93,49,30,25,-8001,-12221,4955,-5527,1706,1083,-639,47,351,225
286096,23,19,34,92,96,47,30,25,-7990,-12200,4946,-5597,1617,1056,-667,105,371,214
286111,25,21,37,93,93,47,31,26,-7972,-12191,4938,-5648,1574,1036,-640,133,256,171
286134,27,28,41,110,89,55,35,27,-7958,-12188,4932,-5679,1582,1066,-634,106,159,117
286157,27,41,38,111,82,43,29,24,-7948,-12186,4932,-5699,1610,1081,-634,62,97,104
286171,28,44,39,99,79,42,27,25,-7944,-12185,4937,-5702,1638,1103,-613,10,9,69
286194,28,44,43,97,71,44,27,25,-7947,-12184,4941,-5695,1661,1077,-590,-34,-36,6
286216,29,44,40,99,72,42,28,27,-7955,-12182,4942,-5688,1678,1052,-552,-38,-36,-33
286231,26,43,36,74,61,30,23,25,-7957,-12181,4940,-5688,1687,1014,-538,-2,-18,-37
286254,19,29,30,56,48,28,22,21,-7955,-12185,4935,-5688,1682,1022,-567,29,-12,-40
286276,21,25,30,47,41,29,23,24,-7952,-12190,4929,-5686,1674,1032,-579,40,-15,-46
286291,18,26,35,46,41,26,23,22,-7949,-12197,4924,-5679,1659,1039,-591,26,-34,-55
286314,16,25,39,41,36,23,20,21,-7947,-12204,4924,-5667,1639,1039,-605,2,-63,-47
286336,15,21,36,40,36,21,19,21,-7946,-12209,4928,-5655,1644,1034,-618,-24,-61,-28
286359,15,21,36,46,42,30,19,22,-7947,-12211,4932,-5644,1651,1039,-615,-30,-55,-26
286374,14,20,36,52,53,31,22,17,-7949,-12210,4935,-5643,1654,1025,-598,-25,-7,-10
286396,17,19,29,52,56,39,26,19,-7949,-12210,4935,-5642,1655,1041,-631,-8,-1,-3
286411,17,23,34,54,54,40,25,19,-7948,-12210,4935,-5642,1648,1042,-625,0,-5,4
286434,19,24,42,59,59,46,26,19,-7948,-12210,4935,-5642,1655,1041,-603,-3,8,15
286456,20,24,44,59,63,43,26,19,-7946,-12206,4941,-5650,1664,1040,-593,-4,16,42
286479,20,25,48,71,66,43,23,19,-7944,-12202,4944,-5658,1664,1055,-588,7,23,47
286494,19,25,48,71,75,39,19,17,-7943,-12197,4944,-5670,1668,1053,-584,15,50,38
286516,19,21,41,66,79,37,20,17,-7940,-12194,4942,-5683,1665,1046,-598,29,64,37
286539,18,20,39,61,75,31,19,18,-7936,-12195,4938,-5690,1644,1056,-599,38,35,16
286554,19,23,38,60,72,29,18,20,-7933,-12199,4932,-5692,1642,1049,-612,31,18,-19
286576,19,23,35,40,60,26,19,21,-7932,-12203,4928,-5686,1632,1044,-608,10,-12,-32
286599,19,24,34,42,55,23,22,21,-7932,-12209,4928,-5675,1647,1048,-611,-7,-53,-38
286614,18,25,34,44,50,24,23,22,-7931,-12215,4930,-5660,1661,1057,-611,-12,-75,-43
286636,20,24,30,47,49,23,23,21,-7933,-12220,4934,-5644,1674,1056,-586,-23,-98,-42
286659,21,23,29,42,43,23,23,19,-7933,-12225,4938,-5629,1671,1057,-594,-18,-95,-41
286674,20,22,27,40,45,23,22,18,-7931,-12231,4941,-5616,1660,1039,-596,-3,-79,-41
286696,21,21,27,37,34,22,20,20,-7930,-12236,4941,-5608,1641,1037,-620,-1,-43,-38
286719,20,19,28,34,31,22,19,19,-7928,-12241,4939,-5601,1637,1043,-617,11,-32,-34
286734,18,19,30,31,30,22,18,19,-7925,-12247,4937,-5594,1626,1048,-618,15,-38,-31
286756,16,17,30,31,29,19,20,17,-7924,-12252,4936,-5585,1640,1061,-614,2,-45,-35
286779,17,18,33,31,25,18,20,18,-7924,-12255,4939,-5575,1659,1066,-606,-10,-66,-31
286794,17,22,34,30,26,18,20,16,-7925,-12260,4940,-5562,1642,1063,-600,-12,-74,-36
286816,18,24,36,34,37,21,21,19,-7925,-12264,4943,-5552,1626,1048,-603,-6,-65,-29
286839,19,26,33,39,49,25,20,17,-7925,-12264,4943,-5552,1641,1041,-618,6,-11,-9
286854,20,27,32,38,50,25,19,19,-7922,-12264,4939,-5559,1648,1050,-609,29,29,-4
286876,17,28,29,39,50,27,21,21,-7919,-12268,4932,-5560,1625,1072,-655,30,26,-19
286899,16,25,29,40,50,26,18,21,-7918,-12272,4928,-5557,1626,1075,-648,14,2,-24
286914,17,24,30,40,53,31,23,21,-7918,-12274,4927,-5552,1629,1066,-628,-4,-20,-18
286936,16,24,32,41,50,29,24,22,-7921,-12271,4927,-5555,1647,1064,-617,-14,18,5
286959,22,30,32,42,51,28,23,21,-7922,-12268,4926,-5561,1636,1055,-624,-5,41,9
17,Repeat 1,,,,,,,,,,,,,,,,,
32,71,86,69,50,60,37,24,23,-7919,-12270,4914,-5571,1630,1077,-605,43,29,-13
55,77,90,72,49,65,39,26,28,-7912,-12280,4888,-5582,1593,1131,-573,149,71,-41
70,78,90,72,45,61,39,25,28,-7883,-12315,4852,-5578,1587,1139,-667,276,-7,-124
92,78,89,72,51,65,44,26,29,-7875,-12352,4802,-5549,1585,1168,-674,182,-48,-282
123,77,65,73,62,76,45,26,27,-7890,-12373,4750,-5526,1656,1151,-580,81,-2,-333
130,42,37,46,65,77,40,26,26,-7907,-12380,4702,-5527,1749,1082,-585,48,104,-291
152,31,28,37,63,66,32,20,18,-7905,-12387,4666,-5547,1695,947,-620,101,147,-196
175,32,45,44,63,67,33,20,18,-7884,-12393,4649,-5576,1616,900,-655,142,139,-46
190,30,68,57,61,65,27,18,18,-7861,-12393,4650,-5607,1536,958,-638,120,105,96
212,26,68,61,50,50,24,18,19,-7836,-12397,4661,-5625,1521,1038,-660,104,31,149
235,25,78,63,47,45,23,19,19,-7824,-12397,4683,-5622,1557,1107,-683,-2,-57,138
257,25,80,79,46,43,23,19,20,-7829,-12390,4713,-5608,1604,1149,-657,-116,-106,127
272,22,73,78,48,39,21,19,21,-7838,-12381,4741,-5591,1634,1163,-627,-125,-119,105
295,27,63,72,48,35,28,27,20,-7843,-12378,4758,-5576,1669,1133,-615,-74,-112,42
310,27,62,66,43,32,29,27,18,-7845,-12382,4761,-5562,1657,1115,-628,-17,-82,-31
332,28,51,62,38,24,28,26,17,-7848,-12390,4755,-5545,1643,1115,-623,8,-80,-84
355,28,54,42,37,24,29,26,18,-7849,-12401,4747,-5525,1620,1075,-624,5,-91,-110
370,27,52,39,32,25,31,26,18,-7851,-12411,4744,-5503,1598,1059,-628,-10,-111,-103
392,21,41,31,26,23,23,17,19,-7854,-12418,4747,-5480,1584,1049,-647,-42,-110,-79
415,21,40,32,22,23,21,16,19,-7858,-12420,4758,-5460,1591,1051,-651,-72,-110,-32
437,19,39,32,23,25,23,16,20,-7862,-12418,4776,-5444,1598,1050,-647,-92,-108,11
452,21,46,31,40,32,23,19,19,-7868,-12409,4796,-5436,1629,1058,-630,-94,-76,49
475,22,47,29,43,31,23,19,18,-7872,-12397,4815,-5442,1640,1081,-650,-74,-1,92
505,22,47,29,45,34,26,20,16,-7872,-12388,4828,-5452,1620,1082,-647,-37,23,92
512,21,47,26,46,41,26,19,16,-7872,-12379,4837,-5464,1619,1102,-658,-21,41,90
535,25,49,33,49,54,33,23,19,-7873,-12373,4846,-5470,1622,1108,-651,-24,15,71
557,26,46,35,38,50,32,22,20,-7874,-12365,4854,-5479,1640,1100,-658,-26,36,73
572,26,50,39,35,50,30,22,21,-7875,-12358,4860,-5486,1623,1095,-642,-22,26,56
595,28,49,39,37,52,31,22,21,-7876,-12355,4864,-5488,1612,1080,-644,-18,9,32
617,30,53,44,45,59,41,25,21,-7880,-12350,4865,-5494,1618,1069,-621,-15,26,19
632,26,53,39,42,47,35,21,17,-7881,-12347,4865,-5499,1624,1072,-635,-6,28,10
655,30,47,39,39,45,34,22,21,-7881,-12346,4865,-5499,1632,1072,-634,2,12,3
677,32,43,35,53,57,43,24,21,-7882,-12347,4860,-5501,1649,1089,-644,11,16,-22
692,31,43,37,56,56,42,24,22,-7884,-12346,4856,-5503,1628,1067,-607,8,10,-17
715,29,43,33,48,46,34,22,21,-7884,-12346,4856,-5504,1661,1076,-610,-3,5,6
737,31,50,36,51,46,34,22,21,-7885,-12341,4856,-5514,1664,1068,-614,3,36,13
752,26,54,34,52,48,35,22,16,-7881,-12340,4851,-5525,1627,1051,-644,37,59,8
775,23,54,32,39,33,24,19,17,-7877,-12341,4843,-5537,1598,1048,-624,52,62,0
797,22,55,29,31,26,22,19,16,-7871,-12347,4835,-5539,1593,1057,-666,45,25,-24
812,22,59,28,31,24,21,19,17,-7867,-12354,4832,-5531,1592,1069,-678,17,-24,-36
835,22,66,24,27,22,20,19,19,-7866,-12362,4833,-5514,1596,1079,-670,-11,-74,-40
857,23,59,28,23,20,20,18,19,-7863,-12370,4840,-5495,1614,1071,-653,-17,-117,-33
874,24,60,27,24,20,18,15,18,-7860,-12378,4847,-5473,1616,1080,-648,-13,-130,-35
895,30,67,29,24,20,19,16,20,-7858,-12385,4855,-5454,1638,1075,-641,-17,-127,-38
917,29,60,30,22,19,19,15,20,-7859,-12390,4860,-5438,1637,1082,-611,-16,-117,-37
932,29,44,29,23,21,18,16,18,-7863,-12391,4867,-5424,1654,1087,-604,-33,-103,-32
955,27,41,28,24,31,20,18,19,-7866,-12389,4870,-5419,1664,1072,-615,-25,-51,-24
977,26,40,31,24,33,21,19,19,-7866,-12389,4871,-5419,1634,1076,-649,-11,7,6
992,19,23,31,26,33,23,18,19,-7867,-12386,4870,-5425,1605,1062,-639,-2,29,10
1015,21,29,31,29,36,26,20,20,-7869,-12384,4867,-5430,1601,1072,-667,-6,44,-1
1045,19,29,36,33,38,27,19,18,-7872,-12381,4864,-5434,1607,1073,-666,-15,40,-7
1052,20,44,38,34,34,25,18,19,-7875,-12378,4868,-5435,1626,1077,-685,-35,17,11
1075,19,42,37,39,35,24,18,18,-7877,-12374,4873,-5435,1612,1081,-676,-34,7,22
1097,19,43,36,45,36,23,18,18,-7878,-12370,4878,-5438,1609,1068,-650,-28,7,28
1112,20,40,36,42,35,21,18,17,-7880,-12366,4884,-5440,1618,1072,-656,-27,4,31
1135,20,46,32,43,32,21,19,20,-7881,-12361,4890,-5445,1632,1081,-634,-17,7,39
1158,18,34,27,50,33,21,18,20,-7878,-12358,4892,-5453,1616,1074,-641,10,24,39
1173,21,51,27,54,46,24,19,20,-7877,-12353,4893,-5466,1620,1062,-636,16,59,43
1195,22,51,28,51,51,31,23,20,-7877,-12347,4891,-5481,1627,1074,-642,11,75,37
1218,20,51,29,55,58,39,25,20,-7878,-12340,4889,-5498,1638,1071,-629,13,85,44
1240,22,47,38,59,67,43,26,20,-7879,-12334,4885,-5513,1632,1088,-641,10,83,39
1255,23,49,45,70,84,52,30,25,-7881,-12324,4883,-5532,1646,1072,-617,5,99,48
1277,22,44,45,69,86,55,32,27,-7884,-12314,4881,-5553,1631,1073,-638,-4,121,62
1292,28,46,46,69,88,52,29,27,-7885,-12307,4877,-5570,1614,1068,-633,12,105,46
1323,29,46,50,68,84,47,27,27,-7884,-12306,4868,-5583,1600,1076,-616,44,79,16
1338,28,45,45,63,78,43,26,27,-7881,-12307,4861,-5590,1615,1055,-628,44,47,-8
1360,26,53,37,42,58,32,21,22,-7879,-12310,4856,-5591,1620,1055,-642,14,15,-22
1375,29,47,46,36,42,26,19,22,-7880,-12313,4853,-5585,1640,1068,-637,-2,-17,-34
1397,22,45,45,35,32,24,20,20,-7879,-12319,4852,-5574,1632,1067,-642,0,-50,-44
1420,26,59,44,32,29,22,19,23,-7878,-12328,4855,-5555,1635,1073,-638,-8,-103,-52
1435,27,69,52,31,25,22,21,21,-7876,-12339,4857,-5531,1628,1080,-641,-9,-132,-70
1457,27,64,53,31,25,21,22,20,-7871,-12354,4857,-5503,1618,1075,-651,11,-149,-89
1480,25,63,44,24,24,18,20,19,-7869,-12369,4857,-5475,1612,1059,-644,2,-154,-106
1495,26,67,44,22,21,19,22,19,-7868,-12382,4855,-5448,1605,1061,-646,-3,-134,-108
1518,24,63,46,23,19,20,21,15,-7867,-12392,4853,-5428,1618,1067,-643,0,-110,-86
1540,23,53,38,22,20,19,18,16,-7866,-12398,4854,-5414,1608,1064,-635,-4,-82,-52
1555,25,53,39,24,21,19,18,16,-7867,-12399,4859,-5406,1625,1075,-629,-17,-65,-18
1578,26,52,41,27,20,19,18,15,-7868,-12398,4864,-5401,1636,1089,-654,-22,-36,1
1600,25,56,40,36,26,20,16,17,-7869,-12395,4869,-5402,1621,1087,-641,-17,-14,26
1615,27,52,36,37,35,24,17,20,-7871,-12389,4872,-5410,1625,1085,-639,-9,30,32
1638,27,54,36,41,54,27,19,20,-7872,-12380,4871,-5430,1615,1066,-638,3,95,55
1660,26,53,36,50,67,26,20,21,-7870,-12374,4867,-5452,1627,1087,-662,36,117,54
1675,25,53,35,52,68,26,20,21,-7869,-12367,4857,-5477,1623,1094,-653,48,142,46
1698,26,42,39,53,72,25,21,21,-7868,-12363,4849,-5495,1608,1086,-675,28,117,29
1720,23,46,40,58,75,23,22,20,-7869,-12357,4846,-5509,1618,1076,-651,9,86,32
1735,23,43,36,63,68,21,21,19,-7870,-12353,4844,-5519,1609,1066,-651,-5,61,23
1758,23,43,38,56,56,24,23,18,-7871,-12348,4847,-5525,1613,1057,-643,-17,37,29
1780,26,59,49,54,55,24,23,20,-7874,-12343,4852,-5530,1624,1062,-630,-27,18,33
1795,33,85,50,50,49,24,23,22,-7875,-12339,4852,-5535,1623,1077,-616,-1,22,18
1818,33,85,47,42,45,22,21,20,-7874,-12340,4847,-5540,1628,1073,-617,28,22,-9
1840,34,87,52,61,55,28,24,24,-7873,-12342,4842,-5540,1629,1075,-626,21,2,-20
1855,33,87,48,62,55,26,22,24,-7874,-12340,4838,-5547,1649,1069,-621,14,33,-8
1878,39,98,41,61,55,27,22,22,-7873,-12340,4834,-5551,1619,1059,-626,15,25,-5
1900,34,82,35,61,55,27,24,19,-7873,-12341,4831,-5554,1609,1072,-620,19,18,-3
1915,33,80,35,60,50,28,24,20,-7870,-12345,4827,-5550,1604,1068,-650,19,-9,-24
1938,32,83,29,29,28,21,20,15,-7868,-12352,4824,-5542,1608,1077,-659,11,-33,-37
1960,33,84,30,26,25,21,20,17,-7866,-12360,4824,-5527,1607,1070,-652,0,-69,-49
1975,26,67,25,27,24,20,21,18,-7864,-12369,4825,-5507,1608,1074,-643,-4,-110,-61
1997,24,61,30,27,21,20,18,19,-7863,-12378,4830,-5485,1633,1076,-628,-12,-135,-58
2020,25,57,34,28,20,17,17,19,-7861,-12386,4835,-5464,1637,1074,-644,-13,-127,-55
2035,24,49,35,28,18,16,17,21,-7861,-12391,4840,-5449,1629,1064,-638,-19,-101,-38
2057,27,57,38,33,26,17,17,19,-7862,-12394,4846,-5437,1630,1085,-640,-25,-77,-24
2080,27,74,48,34,26,29,25,20,-7864,-12395,4850,-5428,1629,1081,-645,-29,-57,-22
2095,26,75,48,33,25,31,25,19,-7866,-12397,4852,-5418,1618,1093,-664,-24,-46,-22
2117,25,76,47,35,32,33,25,20,-7867,-12399,4856,-5408,1599,1085,-667,-26,-52,-19
2140,24,76,46,36,35,35,27,19,-7869,-12398,4861,-5404,1616,1075,-647,-27,-33,2
2155,23,68,43,35,31,35,28,20,-7872,-12395,4865,-5403,1616,1073,-630,-21,-19,6
2177,19,43,34,39,33,27,21,19,-7873,-12392,4868,-5406,1616,1074,-641,-12,5,16
11,Repeat 2,,,,,,,,,,,,,,,,,
25,21,47,29,40,35,23,21,20,-7874,-12382,4870,-5425,1604,1072,-648,7,49,38
48,21,52,31,39,34,25,21,21,-7871,-12380,4870,-5434,1597,1065,-663,14,42,31
71,24,58,43,39,34,23,19,20,-7869,-12377,4873,-5440,1600,1074,-666,2,33,36
86,24,52,43,32,32,23,20,20,-7869,-12375,4873,-5445,1606,1085,-651,5,22,22
108,23,47,43,33,32,21,19,18,-7869,-12375,4873,-5445,1634,1099,-663,10,9,5
131,23,51,44,29,32,21,19,18,-7869,-12375,4873,-5445,1628,1101,-657,-4,-4,-4
153,27,59,45,27,30,17,17,18,-7869,-12375,4873,-5445,1631,1088,-661,-11,-13,-14
168,27,58,35,30,28,17,22,18,-7870,-12377,4871,-5441,1612,1082,-652,-3,-12,-25
191,31,60,32,30,30,18,21,16,-7872,-12379,4867,-5437,1620,1077,-642,-1,-13,-36
213,31,60,38,28,23,18,20,17,-7871,-12383,4862,-5434,1610,1067,-649,18,-11,-41
228,33,71,45,29,21,20,21,17,-7869,-12386,4859,-5431,1594,1064,-647,13,-16,-30
251,30,62,43,30,21,20,20,16,-7867,-12389,4859,-5428,1612,1071,-654,7,-21,-14
273,29,60,43,26,20,20,16,16,-7866,-12392,4858,-5425,1614,1093,-653,10,-21,-15
288,26,83,44,24,16,19,15,17,-7866,-12391,4858,-5425,1622,1091,-641,7,-9,-15
311,33,91,41,24,18,21,17,20,-7866,-12394,4855,-5422,1605,1097,-654,10,-8,-19
333,30,79,35,24,18,19,16,20,-7865,-12398,4849,-5421,1606,1088,-657,27,-1,-31
348,30,79,35,26,19,19,16,21,-7863,-12402,4842,-5419,1609,1080,-656,28,-1,-40
371,29,78,36,24,19,17,17,21,-7862,-12405,4838,-5418,1615,1082,-651,16,-3,-32
393,28,49,35,25,21,18,17,22,-7862,-12405,4838,-5418,1621,1087,-672,4,-9,-15
408,20,32,29,23,24,17,15,22,-7862,-12405,4838,-5418,1624,1087,-662,-1,-4,6
439,21,32,28,23,24,17,14,22,-7862,-12402,4843,-5420,1611,1069,-657,-14,-3,20
453,22,32,31,24,26,17,15,21,-7863,-12399,4848,-5420,1605,1087,-667,-28,-2,24
468,21,44,35,29,37,18,14,21,-7866,-12396,4854,-5420,1606,1081,-664,-36,-1,23
491,22,49,39,40,52,29,17,21,-7871,-12387,4859,-5428,1617,1077,-622,-34,27,44
521,22,50,40,43,52,30,17,19,-7873,-12376,4863,-5445,1647,1078,-657,-22,82,66
528,25,67,39,45,55,31,17,19,-7876,-12368,4863,-5459,1610,1086,-666,-13,90,48
550,32,71,41,50,57,32,19,20,-7879,-12363,4858,-5472,1595,1089,-629,10,80,27
573,31,65,37,48,52,31,20,20,-7877,-12362,4852,-5482,1608,1077,-646,33,55,6
588,29,65,39,39,43,22,21,19,-7875,-12363,4847,-5487,1618,1070,-655,22,35,-13
612,33,69,45,38,42,18,22,21,-7874,-12364,4844,-5488,1617,1080,-670,7,20,-8
633,31,57,45,35,41,21,24,20,-7872,-12368,4841,-5486,1609,1078,-662,15,0,-17
648,24,58,43,27,40,23,24,21,-7871,-12370,4840,-5483,1600,1072,-636,3,-20,-16
670,29,80,54,27,38,26,25,21,-7872,-12372,4840,-5477,1610,1086,-629,-1,-34,-14
693,43,92,56,29,33,27,23,26,-7871,-12376,4837,-5471,1618,1095,-618,19,-40,-35
715,41,89,50,28,33,29,24,26,-7864,-12389,4827,-5462,1598,1108,-649,71,-43,-58
730,41,85,50,29,27,27,22,26,-7861,-12402,4815,-5448,1603,1108,-661,50,-55,-93
753,46,86,56,27,24,27,23,26,-7861,-12413,4803,-5431,1611,1107,-654,30,-62,-109
768,44,70,50,28,24,26,21,26,-7860,-12426,4788,-5417,1606,1087,-643,44,-52,-124
790,30,50,44,26,22,23,23,21,-7857,-12438,4777,-5404,1608,1067,-656,41,-56,-115
813,29,48,44,25,21,21,23,20,-7856,-12444,4773,-5394,1616,1058,-641,12,-59,-73
828,29,49,49,37,25,24,26,23,-7856,-12445,4777,-5389,1633,1074,-650,-17,-44,-22
850,21,43,41,38,25,29,31,22,-7857,-12442,4783,-5389,1610,1066,-660,-30,-15,12
873,19,50,39,40,24,32,31,22,-7858,-12436,4793,-5392,1598,1065,-673,-39,2,46
888,24,59,47,40,25,33,31,21,-7860,-12429,4804,-5397,1593,1088,-650,-37,2,61
911,24,58,47,42,27,35,30,22,-7859,-12427,4808,-5400,1597,1116,-648,2,4,44
933,25,61,42,32,23,35,27,21,-7858,-12427,4811,-5397,1593,1117,-669,-6,-20,15
948,25,64,42,31,25,29,20,20,-7862,-12426,4814,-5392,1598,1113,-654,-26,-27,6
970,28,53,43,26,23,24,20,19,-7862,-12426,4814,-5392,1605,1080,-652,-12,-12,-1
993,24,44,34,26,22,23,18,21,-7861,-12425,4814,-5393,1611,1060,-653,3,-1,7
1008,24,46,34,22,19,20,18,20,-7861,-12426,4815,-5393,1602,1068,-668,-3,8,7
1031,23,49,36,23,21,17,19,17,-7860,-12424,4818,-5396,1604,1078,-684,-10,13,17
1053,28,54,41,24,20,18,20,18,-7860,-12421,4823,-5399,1614,1089,-671,-17,7,30
1076,27,52,39,26,29,18,19,21,-7859,-12418,4829,-5401,1601,1096,-663,-12,-3,37
1090,27,52,39,28,33,19,19,19,-7858,-12416,4835,-5401,1611,1110,-649,-8,-24,38
1113,28,51,39,31,36,20,20,19,-7859,-12414,4840,-5400,1629,1105,-664,-17,-16,21
1136,28,44,38,30,36,20,19,19,-7861,-12411,4844,-5401,1629,1092,-679,-25,5,10
1150,27,47,32,27,35,18,20,18,-7863,-12409,4844,-5401,1610,1084,-681,-21,14,-2
1173,26,47,29,26,30,21,21,16,-7865,-12408,4845,-5401,1590,1081,-655,-17,5,0
1196,27,49,34,26,27,20,22,16,-7867,-12406,4847,-5400,1596,1083,-647,-17,-9,8
1210,36,58,42,22,23,19,22,16,-7868,-12404,4853,-5398,1608,1080,-662,-26,-16,18
1233,37,62,42,24,22,21,20,17,-7868,-12402,4856,-5399,1616,1098,-654,-5,-4,16
1256,36,57,41,24,22,23,20,17,-7869,-12402,4856,-5400,1618,1097,-652,3,-4,-4
1271,35,58,40,24,21,21,22,17,-7869,-12404,4851,-5399,1597,1091,-655,8,5,-24
1293,34,56,36,21,18,21,21,18,-7870,-12406,4847,-5395,1588,1083,-662,3,0,-33
1315,25,44,28,20,19,21,22,18,-7869,-12409,4844,-5393,1606,1073,-672,6,-5,-29
1331,23,37,28,21,21,19,22,19,-7869,-12409,4844,-5393,1607,1075,-658,-1,-11,-11
1353,19,27,27,20,21,17,20,19,-7869,-12409,4848,-5391,1603,1072,-661,-13,-20,3
1376,20,20,26,19,20,18,18,21,-7869,-12408,4854,-5387,1600,1092,-667,-26,-30,15
1391,19,18,25,18,19,18,18,20,-7870,-12407,4862,-5380,1587,1088,-673,-38,-40,19
1413,17,20,27,19,19,18,18,20,-7873,-12404,4872,-5372,1589,1082,-660,-52,-52,17
1436,16,19,26,18,17,18,17,19,-7878,-12401,4883,-5363,1602,1092,-656,-59,-59,20
1451,19,34,31,19,18,21,19,20,-7883,-12397,4895,-5354,1618,1090,-649,-66,-61,20
1473,25,48,54,21,19,21,19,19,-7888,-12392,4905,-5349,1632,1093,-628,-52,-50,20
1495,25,48,56,22,20,20,19,19,-7889,-12391,4909,-5348,1623,1105,-649,-9,-23,13
1511,28,54,60,26,24,21,18,19,-7889,-12390,4909,-5348,1625,1097,-639,-11,-7,10
1533,28,54,63,29,24,20,20,20,-7890,-12390,4909,-5349,1619,1099,-627,4,10,-1
1555,28,48,63,29,25,20,19,18,-7890,-12388,4906,-5355,1626,1087,-645,11,27,-1
1571,21,39,45,29,25,18,20,19,-7891,-12386,4902,-5361,1630,1080,-658,8,34,-8
1593,21,43,45,29,26,19,20,19,-7889,-12386,4899,-5366,1607,1072,-671,14,32,-8
1616,18,37,39,30,24,17,23,18,-7887,-12386,4897,-5371,1595,1073,-668,14,23,3
1632,19,38,33,32,26,18,22,17,-7887,-12387,4897,-5371,1599,1080,-671,-3,4,7
1653,17,37,30,34,33,23,23,18,-7887,-12387,4897,-5370,1595,1080,-671,-8,-10,15
1676,18,33,28,34,34,22,21,20,-7885,-12384,4905,-5371,1610,1071,-667,-18,-14,32
1691,17,27,37,35,32,21,20,19,-7885,-12381,4911,-5375,1623,1083,-652,-13,0,35
1713,17,26,37,32,35,22,18,20,-7884,-12378,4914,-5378,1617,1088,-675,-6,10,29
1736,23,73,42,28,35,23,17,21,-7885,-12375,4916,-5383,1622,1090,-644,-4,16,22
1751,24,78,42,32,33,25,20,21,-7883,-12374,4912,-5392,1619,1089,-629,35,33,12
1773,23,77,44,32,33,30,22,18,-7880,-12373,4908,-5402,1622,1071,-647,35,45,8
1796,24,79,43,33,33,33,25,21,-7882,-12367,4904,-5417,1636,1085,-648,13,77,21
1811,24,80,42,38,36,31,24,19,-7883,-12362,4898,-5433,1634,1074,-646,17,91,17
1833,22,45,36,39,36,38,29,20,-7882,-12358,4892,-5447,1623,1069,-652,27,81,14
1856,21,39,37,34,34,35,26,19,-7881,-12356,4888,-5456,1596,1072,-665,15,63,15
1871,23,46,42,38,39,35,27,20,-7881,-12356,4886,-5461,1595,1080,-652,9,32,11
1893,24,43,35,37,38,34,26,19,-7880,-12356,4886,-5461,1606,1081,-667,-5,12,14
1916,24,42,33,32,33,36,27,19,-7881,-12356,4889,-5457,1616,1087,-663,-19,-17,6
1931,21,37,35,30,34,31,24,20,-7882,-12356,4892,-5453,1614,1072,-655,-17,-20,-2
1953,26,36,36,31,34,31,27,22,-7882,-12356,4895,-5449,1611,1061,-652,-16,-21,-3
1976,26,28,28,28,28,29,29,22,-7881,-12354,4904,-5447,1608,1055,-639,-29,-34,31
1998,26,31,32,27,28,29,29,21,-7880,-12350,4919,-5444,1609,1057,-635,-37,-51,55
2013,25,29,32,27,30,28,28,22,-7882,-12343,4935,-5443,1630,1060,-648,-57,-33,63
2036,25,29,40,28,27,25,26,20,-7886,-12334,4951,-5442,1648,1059,-640,-80,-33,60
2058,21,26,46,33,27,23,24,19,-7893,-12324,4967,-5441,1657,1076,-622,-79,-34,61
2081,18,27,50,30,26,20,21,18,-7899,-12316,4978,-5441,1646,1090,-630,-61,-19,47
2104,20,25,50,31,26,19,21,20,-7903,-12311,4984,-5441,1640,1076,-626,-36,-9,25
2118,19,24,51,29,27,18,20,20,-7903,-12311,4984,-5441,1624,1071,-654,5,8,-4
2133,18,27,52,27,29,19,21,21,-7903,-12314,4975,-5441,1615,1073,-633,27,13,-41
2156,20,24,46,22,27,19,20,21,-7903,-12320,4963,-5440,1631,1072,-654,35,21,-66
2178,19,23,42,23,29,22,19,20,-7903,-12325,4953,-5438,1618,1062,-653,24,14,-63
2193,18,22,39,22,29,27,17,18,-7903,-12329,4946,-5436,1620,1063,-638,20,-3,-49
2216,18,22,39,30,30,28,19,18,-7902,-12331,4941,-5437,1627,1055,-643,17,8,-30
2238,19,21,27,34,28,27,17,16,-7901,-12331,4941,-5437,1637,1056,-637,5,9,-4
2253,17,20,24,33,28,28,17,15,-7902,-12328,4943,-5440,1623,1073,-644,-9,12,16
2276,17,20,29,36,26,26,17,15,-7903,-12325,4949,-5442,1609,1067,-657,-26,5,34
2298,19,20,32,39,28,21,19,16,-7901,-12322,4957,-5443,1616,1053,-654,-18,-5,36
2313,19,22,32,40,38,23,19,15,-7901,-12320,4962,-5443,1630,1077,-642,-14,-18,26
2336,18,20,32,39,44,28,21,17,-7901,-12318,4968,-5442,1631,1073,-632,-12,-21,21
2358,18,22,35,44,44,28,21,17,-7900,-12316,4972,-5444,1645,1080,-639,-4,-7,24
2381,21,21,32,43,47,29,21,18,-7900,-12312,4973,-5452,1638,1071,-624,5,24,25
2396,19,25,28,41,46,28,20,18,-7902,-12307,4972,-5462,1639,1071,-634,0,51,27
2418,20,31,36,35,36,26,19,18,-7904,-12305,4968,-5468,1617,1066,-637,3,45,2
2433,20,37,44,34,27,20,16,15,-7903,-12305,4962,-5473,1616,1066,-641,20,34,-10
2456,20,39,41,28,26,19,17,17,-7904,-12307,4956,-5475,1618,1067,-638,16,27,-22
2478,18,41,44,24,21,16,17,18,-7903,-12309,4951,-5475,1615,1063,-644,14,13,-24
2493,18,38,50,22,20,17,18,19,-7902,-12312,4946,-5474,1609,1064,-647,14,4,-27
2516,17,31,45,25,20,16,18,20,-7902,-12314,4944,-5471,1620,1073,-648,7,-7,-18
2538,19,29,40,24,23,19,19,22,-7903,-12316,4945,-5466,1635,1070,-630,-8,-32,-21
2553,20,30,44,28,25,21,20,23,-7903,-12318,4944,-5461,1645,1074,-621,0,-33,-27
2576,21,28,43,28,23,21,20,22,-7901,-12323,4941,-5456,1648,1061,-640,19,-29,-44
2598,21,30,43,31,24,21,18,20,-7900,-12328,4932,-5452,1627,1081,-629,35,-16,-52
2613,21,35,51,33,24,22,19,20,-7898,-12336,4923,-5448,1620,1069,-625,43,-22,-65
2636,20,43,58,35,26,20,19,19,-7896,-12343,4914,-5442,1617,1081,-644,34,-14,-59
2658,30,55,63,32,24,18,18,19,-7895,-12347,4909,-5437,1616,1082,-639,19,-22,-43
2673,28,55,62,34,26,21,18,17,-7895,-12351,4904,-5435,1621,1086,-627,24,-15,-35
2696,29,54,59,33,25,20,18,18,-7891,-12356,4902,-5431,1625,1067,-639,27,-32,-27
2719,28,53,54,32,25,19,19,18,-7889,-12358,4901,-5430,1626,1068,-629,17,-24,-18
2733,30,54,55,29,22,18,18,19,-7885,-12360,4898,-5432,1628,1074,-634,31,-2,-9
2756,37,77,51,30,24,22,21,20,-7881,-12362,4894,-5438,1636,1065,-635,41,17,-8
2778,39,82,56,31,22,21,22,20,-7876,-12365,4885,-5447,1616,1074,-644,61,43,-15
2793,39,85,60,28,21,23,24,20,-7865,-12374,4870,-5454,1610,1075,-662,109,41,-37
2824,39,85,57,30,24,32,27,21,-7856,-12386,4854,-5455,1589,1092,-693,92,31,-55
8,Repeat 3,,,,,,,,,,,,,,,,,
23,28,71,58,35,21,37,29,16,-7852,-12404,4830,-5441,1638,1108,-684,23,-18,-83
45,27,70,57,32,23,37,29,17,-7851,-12413,4820,-5433,1601,1071,-660,31,-25,-79
68,27,71,58,32,25,36,28,19,-7845,-12423,4810,-5427,1609,1067,-665,56,-27,-76
83,27,73,59,27,22,30,25,18,-7840,-12435,4796,-5419,1588,1082,-658,68,-26,-92
105,27,58,60,25,23,25,20,18,-7835,-12448,4777,-5412,1589,1094,-639,85,-19,-108
128,27,52,55,20,24,18,21,19,-7830,-12458,4761,-5410,1615,1083,-643,79,-9,-94
150,35,86,53,24,25,20,22,21,-7826,-12465,4750,-5411,1602,1070,-648,59,5,-59
165,43,100,48,24,26,19,21,23,-7822,-12467,4745,-5415,1596,1067,-657,36,13,-19
188,54,99,53,24,26,19,21,23,-7818,-12469,4744,-5419,1571,1080,-666,28,15,11
210,56,100,54,24,27,20,21,23,-7818,-12469,4744,-5419,1581,1088,-675,13,3,14
225,56,107,47,23,26,20,21,23,-7817,-12470,4747,-5414,1587,1111,-706,-17,-17,10
248,53,78,46,19,23,18,20,23,-7817,-12472,4753,-5404,1593,1121,-691,-21,-53,6
271,48,54,47,19,23,18,22,18,-7814,-12478,4757,-5391,1601,1115,-697,-6,-72,-13
285,36,63,45,18,23,17,20,20,-7811,-12485,4759,-5377,1588,1093,-690,-1,-78,-37
308,33,69,42,16,22,18,20,20,-7809,-12493,4759,-5362,1569,1092,-678,8,-77,-45
330,48,62,45,16,22,19,20,21,-7807,-12500,4759,-5349,1566,1091,-672,5,-74,-38
345,48,68,47,20,20,20,19,19,-7804,-12505,4764,-5338,1575,1088,-667,2,-80,-14
368,48,70,46,20,18,19,18,21,-7801,-12507,4772,-5331,1592,1080,-646,-1,-82,7
390,48,70,46,21,17,21,19,19,-7794,-12508,4783,-5327,1594,1079,-655,13,-73,32
405,47,71,48,23,17,21,20,21,-7787,-12511,4790,-5325,1588,1098,-653,33,-62,36
428,32,65,52,23,18,22,19,20,-7779,-12512,4794,-5329,1606,1123,-655,51,-27,43
450,30,60,52,20,19,21,19,19,-7774,-12513,4794,-5335,1617,1131,-651,51,-10,29
465,30,64,54,26,21,22,19,17,-7771,-12513,4790,-5343,1625,1130,-662,48,20,18
488,35,70,55,28,21,20,19,20,-7773,-12510,4786,-5350,1633,1135,-686,12,41,6
510,39,76,58,29,21,20,20,20,-7779,-12505,4782,-5358,1641,1126,-710,-22,63,0
525,36,76,57,30,20,19,19,19,-7788,-12497,4777,-5367,1648,1108,-702,-39,74,-9
548,33,79,58,32,21,19,20,20,-7797,-12491,4773,-5374,1615,1086,-735,-51,88,-17
570,41,79,60,28,24,20,19,22,-7803,-12486,4769,-5378,1580,1056,-724,-48,68,-25
585,37,66,61,28,25,21,19,19,-7808,-12484,4764,-5380,1580,1053,-719,-32,52,-33
608,31,52,63,29,26,21,17,18,-7810,-12484,4762,-5379,1565,1053,-718,-29,25,-30
630,34,58,60,30,28,21,19,20,-7811,-12485,4764,-5373,1562,1055,-690,-28,-17,-17
645,34,68,57,30,30,22,19,19,-7810,-12485,4770,-5369,1579,1057,-679,-21,-33,3
668,23,65,56,30,27,21,19,18,-7808,-12484,4778,-5368,1595,1075,-651,-3,-42,23
690,24,66,57,29,26,22,18,18,-7804,-12483,4782,-5371,1618,1103,-662,14,-16,31
713,28,75,54,29,25,22,20,17,-7805,-12481,4782,-5375,1634,1123,-675,6,16,14
728,25,69,54,30,23,22,19,17,-7807,-12480,4777,-5381,1639,1119,-665,13,30,-12
751,25,55,58,29,18,20,18,17,-7809,-12479,4767,-5389,1632,1089,-687,15,60,-35
765,26,54,55,28,17,21,20,16,-7814,-12478,4755,-5394,1608,1103,-681,5,64,-45
788,25,58,61,27,16,19,20,17,-7818,-12477,4746,-5397,1591,1084,-684,-4,53,-43
811,22,51,60,25,16,18,19,18,-7822,-12476,4742,-5399,1576,1070,-676,-17,31,-24
825,25,61,64,23,18,19,19,21,-7826,-12473,4745,-5397,1588,1075,-690,-40,7,-4
849,23,62,60,22,20,20,20,21,-7832,-12468,4750,-5395,1597,1081,-656,-55,-12,6
871,25,64,62,22,20,19,17,21,-7838,-12463,4755,-5392,1602,1104,-664,-51,-13,6
885,24,66,59,28,20,19,17,20,-7845,-12459,4758,-5389,1604,1103,-666,-48,-3,1
908,27,69,59,31,22,20,16,20,-7852,-12455,4759,-5388,1624,1117,-663,-40,9,-10
939,24,61,55,42,38,25,17,16,-7857,-12453,4756,-5387,1612,1115,-669,-24,11,-18
945,27,63,59,52,56,35,21,17,-7861,-12452,4754,-5385,1599,1104,-654,-17,-1,-26
968,25,59,58,64,62,53,40,21,-7866,-12444,4758,-5393,1632,1085,-634,-36,32,26
990,27,52,52,65,79,60,41,25,-7873,-12429,4763,-5414,1647,1097,-627,-35,92,73
1005,25,43,49,65,86,62,41,25,-7877,-12412,4766,-5444,1624,1110,-650,-18,153,114
1028,32,60,63,60,82,59,40,27,-7877,-12401,4765,-5470,1561,1092,-640,15,136,95
1051,31,61,62,55,76,57,40,27,-7873,-12395,4762,-5492,1566,1069,-633,41,111,66
1073,32,74,62,41,72,42,23,23,-7872,-12391,4754,-5508,1566,1083,-638,35,102,29
1088,38,88,60,35,53,33,21,20,-7872,-12392,4747,-5515,1562,1092,-656,22,60,6
1111,44,91,60,34,43,27,22,20,-7868,-12394,4742,-5519,1585,1080,-647,35,30,1
1133,39,81,40,28,40,30,25,19,-7865,-12396,4739,-5521,1612,1083,-637,26,2,-9
1148,38,78,36,25,30,23,23,18,-7863,-12400,4736,-5518,1633,1090,-646,18,-14,-29
1171,39,66,31,24,27,23,22,17,-7864,-12404,4733,-5509,1641,1124,-655,-1,-38,-40
1193,32,58,32,24,28,22,24,18,-7869,-12409,4730,-5494,1633,1127,-654,-23,-53,-61
1208,23,50,29,21,25,24,23,18,-7873,-12415,4731,-5474,1606,1103,-660,-40,-86,-65
1231,24,56,32,22,21,21,21,17,-7878,-12420,4736,-5450,1603,1103,-646,-52,-121,-58
1253,28,55,29,18,19,20,21,20,-7882,-12426,4746,-5423,1598,1084,-655,-68,-147,-58
1268,24,55,28,18,21,25,22,19,-7886,-12431,4757,-5395,1593,1071,-647,-72,-154,-55
1290,23,41,26,20,25,28,22,18,-7887,-12436,4770,-5370,1586,1059,-645,-62,-156,-46
1313,22,38,26,20,25,31,22,19,-7890,-12436,4783,-5355,1623,1069,-625,-54,-116,-15
1336,21,24,21,21,35,33,22,21,-7891,-12432,4792,-5355,1641,1063,-644,-38,-30,9
1350,22,28,30,52,75,55,33,26,-7886,-12429,4799,-5361,1603,1046,-668,0,5,38
1373,22,25,34,63,76,56,36,29,-7883,-12414,4816,-5386,1638,1031,-613,-19,53,129
1388,41,61,42,69,84,61,39,33,-7884,-12383,4846,-5429,1718,1069,-638,-70,138,253
1410,46,69,65,72,86,60,38,33,-7882,-12354,4865,-5482,1681,1108,-655,-18,217,269
1433,46,70,79,76,91,61,39,33,-7858,-12345,4873,-5528,1562,1098,-679,130,177,249
1448,45,71,79,69,76,51,32,29,-7841,-12340,4885,-5554,1490,1136,-680,82,101,232
1470,46,74,80,64,82,57,31,30,-7846,-12334,4886,-5559,1556,1161,-664,-20,59,82
1493,30,47,80,62,81,53,27,26,-7866,-12329,4879,-5549,1624,1148,-622,-85,14,-49
1508,21,41,62,59,80,52,27,25,-7886,-12323,4869,-5541,1674,1091,-613,-86,21,-93
1530,22,46,45,54,75,50,27,24,-7898,-12317,4863,-5542,1684,1022,-602,-54,27,-77
1553,26,52,44,42,64,44,24,23,-7899,-12316,4859,-5546,1635,1001,-612,-2,29,-41
1568,24,50,39,37,56,28,19,19,-7898,-12316,4855,-5552,1593,1028,-610,21,30,-9
1590,27,56,33,27,43,22,20,18,-7894,-12320,4852,-5551,1579,1060,-621,29,-4,-7
1613,28,52,34,27,40,23,20,18,-7895,-12325,4853,-5537,1590,1085,-663,-21,-49,-26
1628,29,48,34,26,33,23,19,19,-7901,-12330,4858,-5514,1598,1104,-633,-60,-109,-43
1650,23,38,30,25,27,20,19,18,-7908,-12335,4864,-5487,1636,1098,-621,-63,-136,-67
1672,25,42,31,21,20,21,18,19,-7912,-12344,4868,-5459,1631,1095,-636,-44,-144,-82
1688,31,53,35,21,23,23,18,19,-7913,-12354,4869,-5433,1620,1095,-627,-17,-138,-84
1710,31,61,38,21,23,23,20,18,-7909,-12368,4865,-5410,1616,1097,-634,28,-129,-92
1733,36,93,41,19,20,24,20,17,-7906,-12381,4858,-5391,1602,1093,-655,29,-82,-98
1748,41,99,51,19,20,23,19,19,-7906,-12392,4849,-5374,1598,1103,-649,17,-72,-96
1770,40,98,59,20,21,22,21,18,-7905,-12404,4838,-5358,1612,1102,-656,31,-66,-114
1793,39,106,78,22,18,18,20,19,-7903,-12415,4824,-5347,1601,1072,-652,41,-40,-119
1808,43,109,86,21,18,16,18,19,-7903,-12425,4809,-5339,1594,1096,-633,49,-25,-105
1830,38,88,88,22,16,13,17,19,-7898,-12435,4794,-5335,1611,1094,-645,75,-11,-98
1853,35,87,87,22,20,15,18,19,-7896,-12446,4772,-5332,1597,1113,-643,80,10,-115
1868,35,96,83,31,27,17,18,17,-7891,-12460,4743,-5332,1602,1129,-632,123,28,-141
1890,29,80,66,32,27,30,24,17,-7887,-12478,4704,-5333,1602,1123,-655,140,58,-185
1913,25,71,57,32,37,38,29,18,-7885,-12492,4667,-5332,1603,1128,-673,110,66,-187
1944,24,65,52,35,40,41,29,17,-7887,-12502,4641,-5331,1586,1104,-665,60,46,-145
1950,22,57,50,36,42,44,29,16,-7891,-12503,4631,-5330,1589,1092,-671,-2,29,-74
1973,20,36,46,29,38,44,29,16,-7894,-12498,4637,-5331,1575,1081,-675,-51,9,8
1988,21,30,40,38,47,38,26,18,-7897,-12488,4655,-5337,1571,1067,-662,-75,0,78
2010,29,54,37,62,71,38,23,22,-7905,-12466,4679,-5354,1587,1053,-593,-99,32,141
2041,34,64,58,90,92,54,28,25,-7907,-12435,4712,-5395,1652,1084,-620,-83,122,266
2055,40,73,57,93,98,55,28,26,-7901,-12407,4730,-5453,1648,1132,-622,22,222,289
2070,47,82,61,94,103,55,28,29,-7885,-12394,4730,-5505,1560,1145,-667,112,238,227
2093,48,84,62,92,101,56,26,28,-7878,-12386,4723,-5539,1578,1146,-666,80,187,126
2115,42,71,62,79,82,51,24,24,-7878,-12385,4708,-5554,1602,1153,-682,44,126,7
2130,41,68,58,48,61,34,24,24,-7883,-12388,4692,-5553,1604,1120,-662,8,57,-71
2153,35,61,61,44,56,28,24,24,-7890,-12390,4683,-5545,1614,1083,-651,-26,6,-80
2175,26,55,63,43,47,31,23,23,-7895,-12389,4687,-5539,1614,1047,-635,-50,-26,-31
2190,25,58,69,37,44,29,23,23,-7897,-12384,4696,-5539,1624,1049,-609,-46,-22,19
2213,28,70,74,36,45,31,25,23,-7899,-12378,4704,-5541,1617,1060,-606,-35,-9,29
2235,26,75,68,30,38,27,20,19,-7900,-12375,4708,-5544,1609,1075,-625,-14,6,23
2250,29,81,72,27,29,26,22,20,-7900,-12376,4710,-5540,1594,1098,-623,-7,-21,-1
2273,27,77,74,26,26,21,21,19,-7903,-12380,4708,-5529,1600,1129,-629,-12,-38,-32
2295,26,74,70,28,24,21,21,19,-7904,-12389,4705,-5508,1596,1132,-657,-10,-85,-63
2310,24,67,67,27,21,17,19,18,-7905,-12402,4705,-5479,1590,1114,-638,-14,-145,-92
2333,24,56,65,30,20,20,19,19,-7907,-12414,4708,-5447,1586,1094,-636,-31,-160,-101
2355,20,45,66,30,20,19,16,17,-7909,-12423,4711,-5421,1591,1085,-629,-30,-142,-85
2370,21,45,63,28,25,21,17,18,-7910,-12427,4717,-5404,1624,1085,-620,-30,-110,-48
2393,21,46,61,28,31,23,17,16,-7910,-12426,4723,-5401,1634,1082,-621,-17,-46,-5
2415,18,40,57,26,30,24,16,18,-7909,-12424,4727,-5404,1622,1099,-646,-5,-5,21
2430,19,42,54,22,37,26,17,19,-7907,-12421,4732,-5409,1589,1094,-647,-3,9,35
2453,26,69,46,25,43,31,17,19,-7909,-12415,4737,-5416,1606,1097,-643,-22,31,39
2475,26,72,63,33,55,34,20,21,-7913,-12406,4741,-5428,1616,1122,-642,-27,60,62
2490,28,78,64,35,60,32,20,21,-7913,-12397,4744,-5446,1610,1112,-648,-5,83,75
2513,32,83,67,42,65,33,23,22,-7914,-12391,4744,-5458,1591,1133,-659,2,74,61
2535,33,83,66,43,63,30,21,21,-7915,-12388,4742,-5465,1596,1118,-641,4,49,22
2550,28,62,62,43,60,27,21,21,-7916,-12387,4737,-5469,1602,1100,-636,7,30,-8
2573,28,57,46,38,48,22,18,18,-7916,-12387,4737,-5469,1606,1095,-619,2,15,-16
4,Repeat 4,,,,,,,,,,,,,,,,,
19,22,38,59,34,30,23,16,17,-7917,-12387,4736,-5470,1602,1073,-641,-12,1,-8
41,18,34,59,33,25,22,17,16,-7917,-12387,4736,-5470,1591,1081,-625,-16,-14,5
64,18,33,60,32,25,22,18,17,-7917,-12387,4740,-5466,1598,1088,-629,-16,-30,3
79,18,35,56,36,24,20,17,16,-7919,-12387,4744,-5459,1594,1097,-627,-21,-44,-5
101,19,47,47,34,25,21,18,15,-7922,-12388,4749,-5449,1603,1110,-627,-33,-57,-8
124,20,49,48,32,25,20,18,16,-7925,-12388,4757,-5437,1606,1107,-636,-47,-67,-3
139,23,50,48,32,34,20,16,17,-7929,-12387,4765,-5427,1614,1098,-633,-50,-65,-3
161,24,56,57,45,37,19,18,18,-7930,-12387,4770,-5421,1618,1101,-622,-17,-44,-5
184,25,65,67,50,55,30,25,20,-7932,-12379,4773,-5434,1642,1075,-615,-13,46,32
199,31,61,80,87,136,77,41,32,-7933,-12364,4776,-5464,1663,1096,-630,0,135,98
221,30,61,80,99,159,101,52,36,-7935,-12342,4774,-5512,1657,1084,-603,16,239,139
244,33,73,81,103,161,104,53,38,-7932,-12321,4769,-5566,1638,1104,-622,53,274,173
259,33,73,80,105,167,107,54,39,-7924,-12305,4762,-5620,1613,1111,-626,93,272,177
281,36,69,75,104,175,106,52,39,-7918,-12294,4751,-5660,1585,1068,-604,82,216,101
304,36,72,57,84,131,81,44,32,-7915,-12291,4739,-5683,1600,1092,-626,61,152,41
319,35,72,52,73,105,51,30,27,-7913,-12291,4724,-5696,1600,1081,-618,49,100,-10
341,32,64,57,72,102,48,31,25,-7915,-12293,4716,-5697,1604,1056,-610,8,37,-36
364,31,63,62,67,92,41,28,23,-7918,-12293,4712,-5695,1625,1058,-596,-10,9,-35
386,29,62,62,65,65,37,27,22,-7919,-12296,4712,-5687,1636,1059,-617,-20,-27,-33
401,23,60,64,55,49,31,23,20,-7921,-12299,4716,-5675,1639,1074,-596,-23,-70,-32
424,23,67,65,56,46,28,24,20,-7922,-12306,4722,-5654,1647,1096,-601,-27,-120,-42
446,30,84,63,50,39,21,20,18,-7922,-12316,4731,-5625,1643,1097,-598,-34,-174,-53
463,31,83,48,41,38,20,20,19,-7923,-12327,4737,-5594,1627,1115,-602,-26,-172,-69
484,30,93,60,41,36,21,20,21,-7921,-12342,4738,-5563,1603,1086,-624,-10,-160,-93
506,33,93,61,39,37,23,19,20,-7924,-12349,4737,-5543,1616,1068,-606,-24,-94,-88
521,32,87,63,34,37,23,16,20,-7928,-12351,4735,-5535,1635,1068,-619,-25,-33,-57
544,24,66,61,32,37,22,15,21,-7928,-12353,4736,-5529,1632,1080,-635,-9,-30,-25
566,24,66,65,31,38,22,15,21,-7927,-12355,4738,-5525,1614,1075,-610,-3,-31,-13
581,23,52,52,32,42,22,15,22,-7928,-12355,4739,-5522,1617,1083,-618,-11,-20,-12
604,23,57,59,35,43,25,18,25,-7930,-12353,4743,-5520,1617,1089,-622,-24,-17,6
626,25,63,59,35,46,27,18,24,-7933,-12348,4747,-5523,1621,1086,-613,-28,10,21
641,26,78,64,34,45,27,19,26,-7936,-12344,4750,-5526,1615,1093,-608,-23,11,19
664,27,89,65,36,45,29,19,27,-7938,-12341,4750,-5530,1624,1088,-604,-2,18,11
686,29,99,70,33,38,27,19,25,-7937,-12341,4746,-5535,1617,1096,-620,18,26,-1
701,27,93,65,29,31,25,16,23,-7937,-12343,4740,-5536,1617,1107,-627,17,20,-19
724,27,90,60,31,24,22,17,22,-7938,-12345,4736,-5532,1616,1111,-632,1,0,-28
746,27,78,55,36,26,22,17,20,-7941,-12347,4735,-5525,1609,1087,-622,-15,-26,-35
761,27,68,50,34,23,22,16,19,-7944,-12348,4737,-5516,1619,1092,-625,-32,-43,-27
784,24,50,40,34,25,22,16,19,-7946,-12350,4741,-5507,1622,1085,-619,-30,-52,-27
806,24,52,39,34,24,19,17,17,-7948,-12352,4745,-5496,1607,1085,-612,-26,-60,-26
821,23,55,43,35,23,20,18,19,-7949,-12355,4747,-5486,1603,1084,-613,-20,-60,-29
844,23,62,40,34,33,22,18,18,-7949,-12359,4749,-5474,1599,1094,-613,-8,-67,-34
866,22,57,40,37,40,22,21,19,-7951,-12361,4751,-5466,1614,1085,-608,-14,-49,-26
881,24,57,43,44,44,25,22,20,-7952,-12359,4755,-5467,1635,1084,-621,-17,-12,0
904,21,50,52,50,53,27,21,20,-7953,-12352,4755,-5478,1627,1086,-598,1,50,27
926,23,49,57,83,127,46,29,23,-7953,-12344,4755,-5497,1618,1083,-609,10,85,58
941,22,53,57,100,148,46,29,23,-7953,-12328,4756,-5532,1652,1092,-601,13,166,112
964,23,54,60,100,149,46,27,21,-7947,-12317,4758,-5563,1617,1109,-634,40,142,130
986,23,51,61,102,150,47,29,22,-7941,-12312,4756,-5586,1615,1099,-629,45,112,84
1001,24,55,53,99,148,46,29,22,-7942,-12306,4749,-5602,1611,1107,-617,22,104,34
1024,23,63,52,72,93,28,20,18,-7946,-12305,4741,-5607,1613,1099,-620,0,59,-14
1046,25,60,59,48,52,27,22,18,-7950,-12308,4732,-5601,1609,1094,-625,-5,9,-58
1061,25,64,63,47,43,31,30,20,-7952,-12318,4727,-5581,1597,1088,-638,-16,-68,-90
1084,25,66,74,38,37,27,28,19,-7957,-12328,4726,-5552,1612,1095,-622,-38,-126,-108
1106,25,64,75,42,29,27,27,19,-7958,-12342,4730,-5515,1612,1088,-629,-41,-186,-114
1123,26,65,71,42,28,27,27,23,-7958,-12358,4734,-5478,1597,1086,-618,-27,-200,-113
1144,23,57,65,36,21,28,27,24,-7956,-12371,4738,-5446,1602,1084,-609,-11,-182,-98
1166,23,52,58,34,21,22,19,22,-7955,-12383,4741,-5419,1595,1100,-621,-8,-153,-84
1181,21,50,39,31,19,21,18,22,-7954,-12392,4745,-5396,1597,1106,-630,-19,-126,-60
1204,21,48,51,22,19,21,18,21,-7954,-12397,4750,-5380,1611,1099,-639,-22,-99,-44
1227,17,33,53,24,19,20,19,19,-7953,-12401,4753,-5368,1600,1099,-643,-14,-69,-32
1241,18,32,52,28,20,19,18,18,-7953,-12403,4757,-5362,1589,1095,-636,-13,-44,-14
1264,16,29,55,34,46,25,22,18,-7953,-12400,4763,-5362,1605,1085,-621,-17,-25,14
1295,19,33,60,41,70,44,26,19,-7955,-12390,4770,-5376,1623,1091,-609,-20,42,62
1301,20,33,48,59,93,52,30,22,-7956,-12375,4783,-5399,1640,1089,-624,-31,79,122
1324,19,32,45,79,99,53,29,21,-7955,-12357,4794,-5430,1637,1117,-635,-10,128,158
1346,22,33,49,84,106,55,30,21,-7953,-12341,4801,-5464,1601,1102,-624,6,152,155
1369,26,58,50,83,100,53,29,22,-7951,-12330,4804,-5489,1581,1094,-642,11,124,118
1384,25,60,50,80,86,39,25,21,-7950,-12323,4803,-5507,1585,1096,-627,12,98,68
1406,25,60,52,80,66,32,23,23,-7948,-12323,4795,-5518,1605,1112,-645,38,78,11
1429,27,66,73,63,61,32,21,24,-7951,-12322,4786,-5522,1614,1099,-630,7,55,-28
1444,28,71,74,57,52,30,24,23,-7955,-12323,4781,-5519,1635,1100,-636,-12,8,-37
1467,26,61,74,56,48,27,21,24,-7958,-12324,4780,-5514,1625,1085,-602,-15,-27,-32
1489,26,67,72,56,47,27,22,23,-7959,-12327,4779,-5506,1602,1091,-622,-6,-30,-30
1504,28,82,93,43,41,23,19,18,-7957,-12331,4780,-5498,1597,1065,-611,-2,-47,-30
1527,30,86,81,38,33,22,21,17,-7955,-12336,4781,-5490,1617,1061,-611,5,-54,-38
1549,29,82,79,34,27,20,17,21,-7951,-12342,4780,-5483,1613,1077,-626,19,-50,-36
1564,28,76,76,32,25,21,17,21,-7947,-12349,4779,-5473,1618,1098,-641,18,-52,-36
1587,28,67,74,29,25,22,17,21,-7945,-12355,4779,-5463,1609,1102,-630,8,-59,-33
1609,25,48,39,20,20,19,18,21,-7943,-12361,4781,-5450,1606,1097,-647,-4,-69,-38
1624,22,31,32,29,29,20,18,21,-7944,-12367,4783,-5434,1592,1099,-636,-18,-84,-41
1646,19,26,27,34,43,25,19,20,-7946,-12370,4790,-5420,1603,1079,-610,-35,-90,-28
1677,19,27,31,43,53,31,20,19,-7947,-12363,4801,-5423,1652,1072,-617,-40,-20,38
1684,20,35,36,45,64,35,21,21,-7947,-12350,4812,-5444,1654,1054,-607,-20,66,89
1707,23,45,57,50,68,39,24,22,-7941,-12336,4817,-5479,1663,1079,-621,34,139,131
1729,26,68,67,55,77,46,25,22,-7929,-12328,4813,-5518,1621,1090,-616,103,167,124
1744,29,81,71,55,70,46,25,23,-7920,-12322,4802,-5553,1595,1117,-642,104,184,104
1766,30,82,70,52,63,42,25,24,-7917,-12320,4789,-5574,1604,1136,-622,70,131,39
1789,31,80,71,53,56,39,24,23,-7919,-12323,4772,-5579,1600,1129,-637,45,75,-38
1804,31,78,59,50,51,35,21,21,-7927,-12324,4759,-5576,1607,1097,-622,-11,36,-72
1827,28,61,61,42,33,25,18,22,-7935,-12326,4754,-5564,1620,1087,-622,-44,-20,-72
1849,25,45,56,37,31,20,18,20,-7939,-12330,4756,-5547,1615,1060,-635,-47,-75,-63
1864,24,49,64,32,31,20,19,18,-7940,-12337,4763,-5527,1615,1060,-618,-36,-115,-53
1886,23,52,65,31,28,20,17,17,-7937,-12345,4768,-5505,1598,1071,-619,-14,-125,-51
1909,24,47,64,33,26,32,27,20,-7935,-12355,4771,-5484,1598,1088,-623,0,-118,-58
1924,23,51,52,29,25,34,28,18,-7933,-12365,4772,-5464,1605,1096,-627,0,-114,-59
1955,29,65,59,33,24,35,28,20,-7932,-12372,4775,-5447,1629,1112,-630,-4,-102,-48
1969,29,63,49,33,24,36,28,21,-7931,-12379,4777,-5432,1626,1111,-626,-2,-94,-41
1984,28,62,45,29,19,36,29,21,-7928,-12385,4778,-5420,1620,1109,-630,11,-79,-36
2007,26,63,47,26,21,25,18,19,-7926,-12391,4777,-5409,1608,1100,-640,6,-58,-43
2029,26,61,48,27,24,20,17,20,-7928,-12396,4774,-5399,1600,1109,-640,-4,-42,-52
2044,21,54,46,34,34,20,18,20,-7930,-12398,4771,-5394,1593,1091,-622,1,-26,-37
2067,20,49,46,35,36,22,19,20,-7930,-12398,4772,-5395,1606,1065,-624,0,-3,-13
2089,18,44,44,43,39,22,22,24,-7928,-12394,4775,-5403,1623,1061,-650,-7,27,18
2104,20,44,42,51,42,26,26,27,-7929,-12384,4777,-5422,1663,1055,-655,-14,92,34
2127,25,49,45,57,47,34,29,29,-7924,-12371,4776,-5460,1641,1032,-671,29,187,91
2149,27,48,55,81,81,46,34,29,-7905,-12358,4781,-5512,1627,1030,-651,101,208,193
2164,29,54,64,124,115,58,39,31,-7874,-12348,4796,-5567,1611,1081,-654,160,172,288
2187,29,57,68,127,133,64,39,26,-7853,-12332,4817,-5612,1599,1136,-624,91,130,320
2209,32,72,75,125,134,63,37,26,-7842,-12323,4833,-5635,1627,1159,-639,46,64,211
2226,29,70,84,125,133,62,35,24,-7847,-12313,4835,-5647,1645,1138,-601,-15,61,85
2247,31,71,80,111,116,55,32,24,-7861,-12303,4829,-5655,1650,1080,-585,-49,75,-10
2269,29,70,76,60,82,41,24,21,-7874,-12297,4814,-5662,1642,1041,-571,-20,81,-68
2292,30,69,74,46,48,31,20,21,-7885,-12298,4794,-5663,1626,1054,-598,-4,70,-108
2307,26,59,73,47,42,29,20,19,-7895,-12302,4777,-5654,1615,1059,-598,-9,17,-119
2329,28,65,67,42,38,24,21,18,-7900,-12311,4768,-5634,1603,1064,-628,-21,-60,-112
2352,24,59,64,35,32,21,17,17,-7906,-12320,4767,-5607,1604,1062,-613,-42,-116,-103
2367,24,58,62,34,33,21,19,17,-7911,-12327,4770,-5581,1625,1074,-619,-55,-121,-82
2389,23,58,64,35,32,20,19,16,-7919,-12330,4774,-5562,1644,1081,-591,-56,-99,-64
2412,24,62,58,34,32,20,18,15,-7924,-12332,4777,-5548,1648,1081,-618,-45,-71,-47
2427,22,51,50,38,30,20,17,13,-7927,-12334,4777,-5539,1639,1080,-609,-22,-44,-43
2449,21,48,45,37,34,22,19,14,-7929,-12336,4773,-5534,1620,1084,-617,0,-18,-39
2472,20,46,45,38,32,21,18,15,-7929,-12339,4770,-5531,1623,1085,-629,4,-4,-31
2487,21,45,40,40,33,22,19,15,-7930,-12341,4767,-5527,1622,1089,-628,-2,-10,-29
2509,18,29,37,37,49,26,19,16,-7931,-12341,4768,-5523,1620,1078,-631,-17,-17,-18
2532,19,37,41,39,73,39,23,19,-7935,-12340,4771,-5519,1627,1084,-612,-29,-25,-8
2547,28,54,43,42,77,45,26,21,-7938,-12333,4776,-5525,1633,1074,-600,-28,19,26
2569,30,57,40,43,79,45,26,21,-7940,-12327,4780,-5534,1622,1088,-601,-12,35,48
2591,35,73,46,39,81,45,25,20,-7938,-12321,4780,-5548,1626,1099,-615,13,60,55
2607,38,103,57,43,74,44,26,21,-7939,-12318,4777,-5558,1606,1108,-596,21,51,33
2629,39,104,52,37,50,34,22,18,-7941,-12316,4769,-5565,1601,1103,-589,25,53,-4
21,Repeat 5,,,,,,,,,,,,,,,,,
36,35,95,48,34,37,24,21,13,-7946,-12325,4749,-5555,1619,1094,-630,-2,-15,-76
58,31,83,49,34,32,23,21,14,-7949,-12331,4747,-5541,1618,1081,-628,-16,-54,-69
81,27,50,39,28,26,18,21,14,-7948,-12338,4749,-5524,1614,1076,-635,-15,-88,-56
96,30,53,45,25,24,17,21,14,-7945,-12347,4753,-5504,1595,1086,-638,-8,-107,-46
118,28,59,58,23,23,17,17,16,-7941,-12358,4755,-5484,1591,1099,-623,7,-117,-47
141,28,59,64,21,23,16,17,16,-7937,-12369,4757,-5462,1597,1107,-634,5,-124,-59
156,27,58,59,28,23,17,18,17,-7937,-12380,4759,-5437,1617,1107,-647,-15,-129,-77
178,29,50,57,30,25,33,27,17,-7939,-12389,4760,-5412,1610,1110,-638,-28,-122,-89
201,21,39,53,31,33,39,29,17,-7941,-12396,4761,-5391,1613,1102,-643,-27,-105,-77
216,21,26,36,34,37,46,31,16,-7944,-12401,4763,-5375,1600,1095,-629,-27,-90,-55
240,20,24,28,36,38,48,32,19,-7947,-12400,4771,-5365,1614,1091,-612,-41,-74,-15
261,20,22,27,31,38,48,31,17,-7952,-12395,4779,-5361,1618,1091,-621,-54,-37,7
276,20,25,30,31,50,44,27,18,-7954,-12391,4787,-5360,1604,1078,-650,-42,-13,15
298,20,27,38,49,68,44,26,19,-7957,-12380,4796,-5374,1604,1068,-614,-37,45,67
321,21,43,45,58,83,42,28,19,-7958,-12366,4805,-5396,1620,1087,-624,-19,89,108
336,22,53,42,57,90,41,28,16,-7957,-12351,4813,-5425,1605,1114,-619,3,115,143
358,22,53,44,57,92,42,29,18,-7951,-12343,4812,-5453,1616,1143,-657,49,139,115
381,22,54,46,58,88,45,29,18,-7949,-12337,4810,-5470,1610,1114,-670,15,104,59
396,23,52,40,45,73,49,28,17,-7953,-12333,4805,-5479,1618,1116,-630,-3,65,8
418,24,42,37,30,54,46,25,20,-7959,-12329,4799,-5484,1625,1096,-615,-12,49,-19
441,29,71,51,30,44,45,25,21,-7965,-12327,4795,-5483,1620,1093,-645,-33,28,-27
456,30,74,53,31,38,45,25,21,-7969,-12327,4798,-5476,1596,1068,-632,-42,-25,-21
478,29,74,51,28,31,37,21,20,-7969,-12329,4803,-5466,1580,1065,-620,-24,-53,-18
501,28,75,57,27,30,25,19,21,-7971,-12332,4808,-5452,1600,1067,-629,-40,-75,-34
523,29,83,76,26,26,22,18,18,-7973,-12343,4816,-5417,1611,1099,-641,-24,-86,-45
540,24,59,75,25,22,22,19,19,-7976,-12347,4818,-5403,1611,1117,-625,-27,-74,-40
561,23,56,73,29,22,22,18,19,-7979,-12350,4821,-5389,1634,1106,-620,-26,-78,-46
583,24,55,75,30,23,18,19,18,-7981,-12353,4822,-5376,1620,1111,-629,-24,-68,-46
600,25,56,73,29,23,18,18,19,-7984,-12356,4823,-5365,1599,1091,-623,-23,-56,-43
621,23,43,53,30,23,17,20,20,-7986,-12358,4822,-5357,1597,1095,-631,-15,-36,-39
643,21,33,45,32,23,15,20,19,-7987,-12360,4821,-5351,1594,1096,-628,-8,-29,-32
660,20,33,47,29,22,16,19,18,-7988,-12363,4821,-5346,1599,1103,-636,-4,-24,-27
681,21,35,60,34,24,18,20,20,-7989,-12363,4820,-5342,1597,1108,-631,-7,-19,-19
703,20,43,63,33,24,20,21,20,-7989,-12363,4820,-5343,1607,1112,-626,-6,-9,-13
720,20,43,62,33,28,24,24,21,-7993,-12362,4820,-5341,1601,1115,-629,-18,-2,-11
741,20,43,61,33,34,30,26,22,-7997,-12360,4820,-5339,1613,1117,-634,-26,-6,-13
763,22,43,57,30,42,40,29,24,-8002,-12355,4821,-5341,1616,1095,-621,-32,14,-9
780,21,40,41,28,58,81,40,28,-8014,-12338,4823,-5360,1641,1063,-545,-52,84,31
801,20,27,34,42,87,104,48,33,-8031,-12305,4822,-5413,1704,1049,-598,-80,289,112
823,21,34,40,42,90,104,47,32,-8039,-12275,4824,-5468,1641,1053,-618,-42,290,165
846,26,45,42,42,89,103,46,30,-8033,-12257,4828,-5513,1560,1075,-610,36,216,189
862,26,46,42,42,86,101,44,28,-8027,-12246,4834,-5541,1555,1106,-619,27,135,158
883,27,47,41,44,88,77,33,23,-8028,-12239,4842,-5547,1566,1136,-645,-33,48,97
914,26,46,39,40,65,43,22,15,-8034,-12234,4855,-5538,1610,1153,-630,-80,-35,59
921,28,43,36,45,67,47,22,17,-8043,-12225,4865,-5536,1658,1124,-610,-82,-6,43
943,29,36,38,45,66,50,21,17,-8049,-12218,4872,-5537,1648,1080,-587,-55,5,21
960,30,44,50,45,65,47,22,20,-8049,-12218,4872,-5537,1651,1073,-575,-15,13,-4
981,29,45,54,47,51,41,24,20,-8051,-12218,4867,-5539,1637,1086,-573,4,15,-25
1003,30,53,63,42,52,48,27,22,-8053,-12220,4859,-5538,1629,1080,-571,15,9,-49
1020,29,53,64,39,43,41,25,20,-8054,-12224,4851,-5533,1611,1084,-582,14,-7,-50
1041,23,50,67,39,46,41,26,20,-8056,-12230,4847,-5522,1606,1093,-574,2,-47,-55
1063,20,44,60,39,50,43,28,19,-8061,-12235,4846,-5506,1606,1105,-575,-22,-73,-59
1080,21,41,56,32,47,41,26,20,-8063,-12241,4846,-5488,1620,1093,-589,-25,-90,-69
1101,19,46,47,30,38,34,20,17,-8064,-12248,4847,-5470,1612,1075,-591,-12,-90,-68
1123,17,48,48,25,37,35,21,19,-8062,-12256,4846,-5457,1618,1089,-596,3,-73,-58
1140,18,47,40,24,30,31,21,19,-8060,-12263,4845,-5444,1615,1087,-601,8,-72,-54
1162,19,45,37,21,25,28,20,19,-8056,-12271,4845,-5432,1625,1084,-615,10,-70,-54
1183,18,46,38,21,27,32,19,18,-8054,-12277,4844,-5422,1630,1089,-614,7,-56,-49
1200,18,32,36,25,28,34,21,18,-8053,-12282,4844,-5412,1628,1106,-622,-1,-54,-40
1222,18,27,31,25,29,33,21,16,-8053,-12286,4847,-5401,1614,1107,-625,-17,-58,-27
1243,17,29,31,26,36,38,23,19,-8053,-12287,4854,-5392,1609,1086,-614,-27,-63,-10
1260,17,27,31,26,36,38,22,18,-8053,-12288,4861,-5384,1605,1081,-604,-26,-59,-4
1282,16,26,30,27,35,32,23,19,-8053,-12287,4868,-5381,1608,1065,-605,-25,-34,-1
1303,16,24,29,26,35,32,23,20,-8053,-12284,4872,-5383,1620,1066,-604,-17,-5,5
1320,17,24,28,29,53,39,28,22,-8052,-12276,4875,-5400,1636,1056,-602,-1,65,46
1348,19,28,29,28,52,35,26,21,-8051,-12269,4873,-5419,1614,1087,-594,22,85,49
1363,23,42,39,30,51,34,26,20,-8048,-12265,4872,-5434,1607,1119,-626,25,79,57
1386,34,94,62,29,51,36,25,21,-8043,-12264,4869,-5446,1590,1134,-617,47,57,57
1402,37,101,72,28,52,33,24,22,-8036,-12267,4861,-5456,1590,1150,-609,78,54,32
1423,38,102,74,27,33,26,20,21,-8027,-12277,4851,-5456,1603,1126,-617,90,-3,-28
1446,55,109,79,27,29,25,21,22,-8017,-12295,4829,-5450,1609,1155,-621,123,-13,-95
1462,61,105,75,26,30,26,23,23,-8005,-12320,4801,-5436,1608,1142,-632,155,-44,-159
1483,58,76,69,26,28,25,23,21,-7989,-12353,4766,-5415,1595,1136,-641,186,-74,-220
1506,57,81,60,24,26,24,23,20,-7975,-12387,4729,-5391,1582,1119,-638,176,-83,-246
1522,57,90,59,26,26,22,23,19,-7968,-12416,4694,-5364,1570,1119,-657,130,-75,-252
1543,41,81,61,27,27,24,23,21,-7964,-12441,4664,-5339,1587,1098,-630,96,-83,-244
1566,30,81,62,27,25,23,21,22,-7963,-12458,4638,-5323,1611,1095,-613,75,-52,-206
1582,30,79,55,28,25,22,23,22,-7959,-12471,4619,-5315,1596,1090,-613,76,-33,-149
1603,30,68,53,27,26,23,22,21,-7954,-12480,4605,-5313,1576,1074,-617,66,-16,-99
1626,28,53,49,26,30,24,21,22,-7952,-12482,4599,-5316,1589,1100,-631,31,11,-41
1642,27,52,38,22,30,24,21,21,-7952,-12479,4599,-5324,1591,1110,-640,2,32,8
1663,25,49,37,24,32,24,22,20,-7950,-12475,4605,-5333,1581,1115,-666,-10,32,47
1686,19,32,36,21,32,26,20,19,-7949,-12468,4615,-5341,1570,1120,-665,-29,24,75
1702,17,46,39,23,30,26,20,21,-7949,-12460,4629,-5348,1576,1131,-672,-45,14,89
1723,19,60,46,23,27,25,21,21,-7950,-12451,4644,-5353,1574,1137,-667,-50,9,93
1746,21,62,51,27,26,25,21,19,-7953,-12442,4661,-5356,1580,1140,-653,-63,-9,93
1762,31,67,65,27,26,28,21,21,-7956,-12434,4672,-5359,1579,1151,-637,-44,-1,75
1783,31,67,64,31,28,30,19,20,-7955,-12432,4678,-5361,1584,1137,-648,-10,-3,41
1806,30,56,60,36,30,31,20,18,-7957,-12430,4680,-5361,1601,1150,-665,-21,6,14
1822,29,41,55,39,29,38,28,19,-7961,-12426,4683,-5363,1611,1123,-629,-25,6,7
1843,29,37,52,37,31,39,26,20,-7963,-12421,4686,-5366,1604,1117,-637,-25,9,17
1866,17,30,34,43,34,38,25,17,-7965,-12414,4694,-5373,1600,1100,-620,-26,13,45
1882,19,32,42,56,47,45,30,20,-7966,-12404,4705,-5386,1586,1095,-623,-37,39,89
1903,23,49,44,53,47,45,28,21,-7965,-12390,4718,-5407,1598,1106,-646,-27,82,126
1927,35,74,86,53,48,40,21,21,-7961,-12382,4724,-5426,1569,1109,-635,11,80,110
1942,45,87,96,55,48,39,24,25,-7953,-12381,4723,-5443,1545,1152,-633,69,70,91
1963,48,89,105,52,45,40,26,27,-7944,-12386,4719,-5446,1575,1153,-633,74,7,24
1986,48,90,117,35,28,30,21,25,-7940,-12395,4710,-5440,1589,1152,-651,49,-15,-38
2002,47,85,123,37,29,30,23,26,-7942,-12400,4697,-5436,1624,1148,-635,26,2,-73
2023,41,70,105,39,30,30,24,25,-7944,-12406,4685,-5432,1632,1106,-628,23,0,-88
2046,30,60,102,41,27,27,24,22,-7944,-12410,4675,-5431,1611,1092,-639,23,15,-65
2062,29,74,102,38,27,24,23,19,-7946,-12410,4670,-5431,1592,1106,-637,-1,17,-33
2083,34,77,105,40,31,28,24,21,-7949,-12409,4671,-5430,1600,1096,-622,-21,-9,-13
2106,32,81,104,37,31,28,21,20,-7949,-12410,4668,-5429,1582,1108,-622,6,-1,-17
2122,32,82,97,30,30,27,22,20,-7947,-12414,4664,-5425,1593,1105,-636,20,-17,-37
2143,30,77,91,27,31,28,21,19,-7948,-12418,4660,-5419,1590,1122,-646,4,-15,-41
2166,27,59,79,29,30,28,22,19,-7948,-12420,4657,-5416,1597,1102,-633,2,-13,-36
2183,19,53,49,23,27,25,23,16,-7950,-12420,4655,-5415,1605,1108,-634,-7,-2,-23
2203,18,41,36,25,24,26,28,19,-7951,-12418,4659,-5416,1605,1101,-629,-17,-2,7
2226,17,31,33,27,25,36,37,25,-7955,-12404,4666,-5435,1665,1057,-609,-38,70,48
2242,20,33,36,35,40,57,50,36,-7954,-12381,4674,-5481,1712,979,-676,-42,217,105
2271,40,87,79,61,53,64,56,41,-7947,-12357,4685,-5537,1624,907,-682,-20,267,167
2287,75,114,171,90,60,72,58,50,-7903,-12354,4710,-5585,1421,1085,-630,204,105,377
2308,83,171,268,92,62,73,57,52,-7873,-12357,4745,-5592,1422,1332,-736,87,-39,390
2325,87,191,299,95,63,70,51,51,-7886,-12357,4764,-5556,1634,1338,-610,-100,-190,63
2346,88,193,302,93,60,60,37,45,-7920,-12365,4736,-5514,1770,1297,-493,-67,-149,-265
2368,82,176,300,81,49,52,28,41,-7955,-12373,4662,-5509,1743,1197,-441,74,121,-409
2385,53,161,263,52,41,45,22,30,-7981,-12383,4578,-5520,1683,1116,-492,129,231,-414
2406,41,100,165,48,41,44,22,24,-7993,-12393,4509,-5537,1610,1068,-544,141,230,-321
2428,32,52,100,39,38,43,20,19,-8002,-12397,4457,-5556,1559,1035,-571,89,221,-220
2445,27,44,92,39,30,36,20,16,-8011,-12395,4425,-5572,1530,1039,-623,22,193,-128
2466,23,42,72,35,29,35,19,16,-8018,-12392,4413,-5580,1520,1037,-658,-41,124,-59
2488,26,49,65,31,26,29,18,15,-8025,-12386,4417,-5579,1540,1082,-662,-85,45,3
2505,26,46,71,36,26,27,20,16,-8029,-12379,4433,-5576,1571,1100,-631,-91,-16,51
2526,27,54,89,45,25,26,20,19,-8030,-12372,4457,-5572,1591,1081,-619,-94,-57,74
2548,27,60,100,48,22,25,20,22,-8027,-12366,4484,-5567,1600,1098,-608,-73,-80,100
2565,29,66,101,47,23,24,20,22,-8020,-12362,4508,-5568,1605,1120,-599,-30,-66,120
19,Repeat 6,,,,,,,,,,,,,,,,,
41,24,58,111,47,20,21,17,23,-8007,-12349,4553,-5578,1607,1123,-596,-30,-29,133
58,22,51,99,41,20,21,17,21,-8004,-12341,4571,-5586,1607,1136,-600,-25,-4,122
86,22,52,93,39,23,24,18,18,-8003,-12335,4585,-5590,1611,1129,-601,-36,-7,89
101,20,46,92,39,25,27,19,19,-8005,-12329,4596,-5590,1610,1144,-597,-41,-14,65
118,22,48,79,37,24,27,18,17,-8007,-12323,4607,-5592,1624,1124,-584,-39,-13,60
139,19,48,67,36,31,43,28,18,-8008,-12317,4618,-5595,1629,1114,-579,-36,-15,60
161,21,52,65,35,30,45,28,18,-8007,-12313,4629,-5595,1619,1118,-604,-27,-19,60
178,21,41,53,47,40,47,28,17,-8005,-12309,4640,-5597,1614,1120,-581,-15,-25,67
199,30,71,58,56,59,51,34,23,-8005,-12298,4653,-5611,1616,1109,-531,-15,17,114
221,30,73,67,57,66,52,34,26,-7998,-12292,4664,-5626,1618,1129,-602,18,42,123
238,31,73,68,61,73,43,27,26,-7994,-12286,4669,-5638,1599,1091,-593,4,49,78
259,30,72,71,67,75,41,27,26,-7992,-12282,4670,-5651,1603,1095,-592,12,63,56
281,34,76,78,61,68,36,28,27,-7991,-12279,4668,-5659,1613,1100,-582,19,45,28
305,25,46,78,56,55,31,20,20,-7989,-12279,4663,-5667,1631,1095,-590,30,43,6
319,24,44,74,57,51,37,22,21,-7988,-12282,4656,-5669,1644,1105,-596,24,22,-25
341,25,48,74,55,40,35,21,20,-7988,-12286,4648,-5667,1633,1108,-597,23,11,-44
364,25,45,74,48,38,36,23,19,-7990,-12289,4640,-5662,1628,1110,-597,5,-1,-48
379,21,39,68,43,40,38,24,19,-7994,-12293,4638,-5651,1635,1111,-609,-24,-32,-51
401,21,37,63,39,39,37,24,20,-7999,-12296,4640,-5634,1630,1112,-602,-48,-71,-53
418,21,30,55,35,34,33,22,17,-8005,-12300,4643,-5615,1624,1096,-602,-55,-80,-60
439,21,23,47,29,31,31,22,18,-8010,-12304,4648,-5596,1609,1079,-592,-55,-90,-57
461,20,23,37,29,33,31,20,19,-8014,-12307,4654,-5578,1603,1065,-597,-54,-91,-51
478,20,22,32,28,34,28,17,19,-8018,-12307,4662,-5565,1616,1045,-579,-60,-80,-36
499,20,23,36,36,51,36,21,22,-8021,-12305,4673,-5556,1621,1053,-582,-60,-66,-10
521,20,27,41,48,74,49,32,30,-8022,-12293,4687,-5570,1665,1041,-589,-52,38,74
538,19,28,53,56,81,57,40,33,-8024,-12278,4699,-5589,1647,1058,-605,-52,79,96
566,19,34,73,61,86,59,41,34,-8022,-12264,4715,-5610,1576,1036,-592,-39,79,134
581,26,48,79,68,87,59,41,34,-8017,-12246,4735,-5639,1587,1047,-566,-21,90,199
598,26,47,77,68,80,57,40,32,-8010,-12229,4758,-5667,1645,1066,-545,-9,59,204
619,25,47,82,65,77,52,37,28,-8008,-12214,4768,-5692,1669,1114,-563,-4,92,144
641,26,47,77,59,70,42,28,23,-8014,-12203,4765,-5712,1659,1154,-567,-4,121,80
658,27,43,61,54,63,40,27,21,-8020,-12195,4754,-5729,1638,1111,-540,14,115,18
679,20,28,56,50,63,40,29,22,-8026,-12192,4737,-5741,1634,1096,-538,32,102,-26
703,19,28,56,45,64,38,26,23,-8031,-12191,4724,-5747,1632,1080,-554,12,69,-42
724,19,25,47,47,48,30,23,20,-8034,-12190,4717,-5751,1645,1042,-559,-2,42,-41
739,19,22,43,49,52,35,24,21,-8039,-12187,4712,-5754,1628,1068,-573,-18,51,-20
761,17,22,43,49,51,34,25,21,-8042,-12184,4713,-5756,1628,1057,-559,-25,19,7
778,18,22,38,46,53,36,22,20,-8045,-12180,4717,-5756,1650,1069,-546,-34,0,12
799,18,21,37,46,51,33,23,20,-8046,-12179,4722,-5752,1627,1073,-561,-24,-24,13
829,19,21,31,36,52,35,21,19,-8045,-12181,4731,-5744,1629,1073,-560,-22,-61,11
838,18,21,32,50,59,35,21,19,-8043,-12183,4741,-5732,1639,1065,-558,-31,-87,6
859,18,20,30,66,69,37,20,20,-8046,-12177,4750,-5733,1705,1052,-525,-38,-30,15
881,20,22,34,70,84,40,23,21,-8047,-12171,4751,-5743,1671,1073,-554,-8,50,30
904,21,22,39,74,95,42,23,21,-8044,-12166,4755,-5757,1669,1052,-551,13,49,54
919,21,22,43,75,99,40,23,21,-8037,-12162,4757,-5771,1662,1060,-557,34,48,60
941,22,33,60,79,105,48,28,24,-8033,-12159,4754,-5787,1659,1063,-534,44,63,39
964,25,42,70,84,135,60,31,25,-8033,-12153,4745,-5806,1675,1068,-520,43,103,18
979,22,41,70,82,128,61,35,25,-8027,-12151,4739,-5825,1673,1068,-573,55,97,39
1001,22,43,71,79,131,61,35,24,-8020,-12152,4733,-5836,1643,1064,-561,55,56,25
1024,22,45,69,83,124,59,34,23,-8016,-12153,4728,-5843,1646,1059,-555,39,39,7
1039,20,37,56,75,116,50,31,20,-8015,-12155,4724,-5845,1644,1055,-540,20,10,-12
1061,19,29,48,56,71,35,29,19,-8015,-12158,4721,-5840,1653,1066,-554,3,-11,-30
1085,19,30,48,51,65,28,25,17,-8018,-12162,4718,-5830,1644,1079,-558,-15,-33,-45
1099,18,26,43,49,40,27,23,17,-8019,-12169,4720,-5813,1641,1062,-551,-17,-87,-49
1121,20,22,47,45,45,32,24,18,-8017,-12178,4725,-5792,1644,1053,-557,-13,-123,-53
1144,21,30,54,38,39,32,23,17,-8011,-12192,4734,-5764,1632,1049,-575,-9,-166,-56
1159,23,48,52,35,38,29,22,16,-8006,-12207,4745,-5730,1625,1051,-572,-17,-205,-65
1189,23,56,59,36,38,28,20,16,-8001,-12225,4751,-5694,1635,1084,-570,0,-215,-93
1204,22,57,60,36,35,27,21,16,-7998,-12243,4755,-5657,1630,1071,-568,0,-211,-111
1219,20,59,56,28,26,22,20,17,-7995,-12259,4759,-5623,1625,1077,-559,0,-202,-94
1241,20,59,55,22,25,24,20,18,-7991,-12271,4764,-5596,1607,1065,-559,2,-171,-74
1264,18,46,52,21,26,25,21,18,-7989,-12282,4768,-5573,1633,1076,-588,-5,-134,-66
1280,20,33,43,20,25,27,22,18,-7992,-12287,4769,-5556,1666,1088,-595,-28,-89,-74
1301,20,32,41,19,31,28,22,18,-7998,-12288,4763,-5551,1685,1095,-585,-11,-17,-71
1324,22,29,43,26,36,30,24,16,-7997,-12291,4751,-5556,1618,1080,-573,46,36,-47
1339,22,22,30,35,38,28,24,16,-7990,-12294,4740,-5570,1629,1094,-573,89,55,-1
1361,19,20,27,38,37,28,23,16,-7982,-12295,4730,-5586,1647,1101,-587,84,66,11
1384,19,21,25,41,44,33,21,19,-7983,-12294,4720,-5596,1626,1126,-565,41,59,-3
1399,19,24,27,49,49,35,24,21,-7989,-12289,4705,-5612,1626,1121,-572,28,115,-9
1422,17,24,22,47,66,34,23,22,-7995,-12279,4693,-5634,1627,1072,-581,9,152,1
1444,18,24,25,46,76,35,23,23,-7998,-12270,4683,-5657,1628,1067,-595,7,153,18
1459,19,23,26,48,81,38,24,23,-8001,-12259,4673,-5685,1635,1054,-587,16,171,33
1481,20,22,27,48,78,33,27,21,-8000,-12251,4665,-5711,1632,1054,-634,12,172,39
1504,20,19,37,41,72,29,24,21,-7996,-12246,4662,-5730,1597,1049,-614,22,116,48
1520,22,23,40,40,58,28,26,20,-7988,-12245,4666,-5739,1577,1080,-597,31,37,78
1541,22,30,42,35,41,27,24,19,-7982,-12248,4674,-5734,1588,1115,-597,4,-41,53
1564,23,44,43,28,35,23,23,19,-7987,-12254,4676,-5713,1598,1135,-557,-26,-102,-31
1580,23,45,45,24,32,20,20,18,-7991,-12269,4671,-5680,1607,1139,-557,-6,-152,-117
1603,23,45,38,24,32,21,20,17,-7992,-12290,4656,-5643,1654,1128,-569,34,-168,-196
1624,21,43,35,24,25,21,19,19,-7995,-12317,4622,-5609,1684,1134,-568,83,-120,-293
1640,22,38,31,22,24,19,20,17,-7994,-12349,4574,-5580,1660,1120,-560,149,-78,-345
1662,20,20,30,20,20,18,20,17,-7991,-12378,4526,-5559,1607,1103,-580,155,-31,-307
1684,19,20,28,24,23,18,19,17,-7987,-12398,4495,-5545,1591,1074,-590,107,-27,-216
1708,18,19,24,23,25,22,19,17,-7984,-12408,4486,-5535,1580,1056,-598,29,-36,-104
1721,18,20,22,23,31,27,20,15,-7987,-12401,4498,-5535,1607,1047,-605,-67,-23,12
1744,17,21,22,24,35,36,20,17,-7992,-12383,4528,-5545,1622,1035,-622,-135,4,131
1760,15,22,20,25,38,39,24,19,-7996,-12355,4572,-5564,1605,1022,-657,-178,43,230
1781,16,22,20,23,38,40,23,20,-7994,-12326,4629,-5585,1580,1015,-628,-168,4,317
1804,16,24,25,24,35,37,23,21,-7984,-12301,4694,-5601,1569,1062,-624,-140,-55,376
1826,15,26,33,26,34,36,22,23,-7974,-12281,4755,-5608,1579,1143,-574,-101,-119,366
1841,17,28,33,30,31,27,22,23,-7966,-12276,4792,-5598,1634,1227,-584,-41,-154,212
1864,18,26,35,40,36,30,21,24,-7977,-12278,4791,-5579,1684,1250,-574,-36,-88,-22
1886,22,25,33,41,36,41,29,25,-7993,-12285,4761,-5566,1706,1219,-539,27,1,-172
1901,25,23,32,41,37,44,29,24,-8003,-12296,4718,-5563,1683,1142,-557,85,70,-229
1924,25,19,31,42,33,44,28,22,-8006,-12309,4683,-5562,1629,1064,-577,85,60,-198
1946,24,18,35,42,40,45,29,21,-8004,-12315,4668,-5564,1589,1013,-600,40,38,-95
1961,23,20,36,32,33,42,28,17,-8003,-12315,4669,-5564,1568,1021,-617,-16,8,-2
1984,19,22,38,29,32,29,21,15,-8002,-12310,4685,-5562,1551,1037,-623,-59,-21,60
2006,14,23,36,30,31,24,20,18,-8000,-12305,4705,-5560,1575,1065,-623,-65,-41,86
2021,13,23,34,26,31,21,20,19,-7999,-12301,4721,-5556,1600,1100,-605,-43,-49,71
2044,18,23,30,20,23,18,19,20,-7998,-12300,4729,-5553,1624,1119,-600,-14,-41,34
2066,17,24,30,21,23,18,18,20,-7996,-12304,4728,-5548,1640,1136,-595,24,-33,-10
2081,18,24,27,21,21,18,18,19,-7993,-12311,4719,-5544,1656,1129,-606,41,-21,-54
2104,22,23,28,19,21,19,18,19,-7992,-12319,4708,-5537,1637,1120,-610,37,-14,-77
2126,23,23,25,23,29,29,24,22,-7993,-12324,4700,-5531,1628,1099,-598,19,-22,-66
2141,19,21,23,25,36,34,25,22,-7996,-12324,4700,-5527,1629,1091,-576,-15,-28,-31
2164,19,21,21,27,44,39,26,23,-8002,-12317,4709,-5526,1638,1073,-589,-65,-18,15
2186,17,19,21,29,47,41,27,22,-8007,-12305,4724,-5533,1646,1049,-592,-76,9,58
2201,13,20,22,34,51,43,28,21,-8004,-12294,4742,-5546,1618,1040,-589,-39,12,106
2224,11,22,22,32,48,38,24,20,-8003,-12281,4760,-5561,1594,1061,-586,-40,37,134
2246,13,22,23,30,42,38,23,21,-8001,-12269,4779,-5575,1601,1082,-617,-45,41,144
2261,14,19,22,32,35,36,21,19,-8001,-12258,4795,-5587,1608,1088,-627,-49,42,123
2284,15,22,29,44,37,40,21,20,-8002,-12245,4811,-5597,1626,1089,-585,-51,23,121
2306,17,22,33,42,35,42,22,22,-8002,-12230,4829,-5616,1641,1077,-593,-46,56,150
2321,18,26,38,46,39,47,24,20,-8000,-12219,4840,-5633,1637,1118,-572,-3,52,133
2344,25,61,48,48,43,46,24,19,-7999,-12211,4844,-5647,1642,1116,-568,8,53,90
2366,27,66,54,47,43,43,22,21,-7999,-12212,4835,-5654,1658,1140,-583,44,50,6
2381,28,65,52,37,39,40,21,20,-7997,-12221,4815,-5654,1656,1123,-580,79,31,-80
2404,27,66,49,36,38,35,20,17,-7995,-12236,4787,-5649,1653,1115,-599,94,25,-144
