time,emg0,emg1,emg2,emg3,emg4,emg5,emg6,emg7,quat0,quat1,quat2,quat3,acc0,acc1,acc2,gyro0,gyro2,gyro2
60270,24,76,124,57,38,21,20,24,5294,-2271,-11620,-10013,1209,1572,-17,79,-52,-9
60293,28,95,138,60,35,20,23,24,5289,-2263,-11629,-10006,1199,1598,-4,104,-44,-2
60316,25,107,153,65,27,22,24,23,5284,-2252,-11639,-9999,1170,1599,19,126,-46,-7
60330,28,107,163,67,25,22,25,20,5278,-2235,-11650,-9994,1151,1596,61,157,-41,-34
60353,30,112,165,62,24,22,25,20,5271,-2210,-11663,-9988,1134,1622,104,191,-39,-58
60376,31,132,200,49,26,24,27,24,5264,-2180,-11680,-9979,1107,1627,111,239,-35,-58
60390,40,131,210,47,24,23,26,23,5261,-2145,-11698,-9966,1068,1628,136,280,-12,-50
60413,40,133,246,51,26,25,25,27,5262,-2101,-11715,-9955,1072,1615,131,285,39,-81
60436,38,137,268,55,29,30,24,27,5267,-2043,-11730,-9947,1048,1595,103,287,115,-133
60450,39,161,281,57,29,30,27,30,5276,-1978,-11748,-9934,998,1562,75,317,157,-133
60472,37,147,285,65,29,31,26,28,5288,-1915,-11775,-9908,934,1540,61,398,146,-78
60496,29,141,282,70,31,31,24,29,5304,-1856,-11805,-9875,901,1540,79,434,128,-25
60510,30,139,271,64,31,29,24,28,5327,-1808,-11841,-9829,924,1505,41,484,111,34
60532,31,138,240,61,30,23,24,27,5353,-1766,-11885,-9769,970,1523,-9,541,89,82
60556,35,126,234,67,31,22,24,25,5388,-1735,-11934,-9695,987,1568,-4,612,69,188
60570,38,139,218,69,35,24,24,28,5432,-1711,-11986,-9610,1056,1586,-68,641,80,245
60593,43,151,242,64,35,22,26,29,5473,-1688,-12035,-9529,1113,1617,-136,587,88,224
60616,51,151,217,64,35,23,27,26,5510,-1667,-12078,-9458,1086,1574,-180,510,93,208
60630,54,148,285,74,36,23,25,26,5544,-1651,-12121,-9384,1085,1526,-208,502,72,207
60652,49,143,318,76,37,23,24,24,5573,-1635,-12168,-9309,1099,1487,-259,495,53,176
60676,49,139,332,70,29,21,24,19,5603,-1630,-12213,-9233,1136,1405,-280,469,25,196
60690,46,130,314,70,30,23,23,20,5634,-1634,-12261,-9149,1187,1408,-334,476,-2,230
60713,43,128,323,72,28,23,23,22,5668,-1650,-12316,-9051,1217,1342,-368,533,-43,288
60736,40,125,264,64,28,24,25,23,5700,-1672,-12377,-8943,1223,1386,-430,563,-71,344
60750,40,102,206,54,26,24,23,25,5732,-1707,-12439,-8829,1250,1365,-471,559,-109,404
60773,39,91,156,51,30,24,23,28,5762,-1757,-12501,-8712,1251,1344,-502,535,-161,472
60796,35,101,150,49,28,21,22,27,5786,-1826,-12564,-8590,1260,1325,-532,517,-247,544
60810,26,106,164,61,31,21,22,26,5807,-1914,-12624,-8468,1287,1272,-538,481,-318,605
60833,26,111,177,63,36,21,21,26,5831,-2013,-12678,-8347,1374,1264,-560,442,-336,639
60856,29,116,202,65,38,22,22,30,5856,-2113,-12729,-8226,1498,1251,-602,424,-333,614
60871,29,117,201,65,36,21,21,28,5882,-2208,-12771,-8116,1602,1268,-695,343,-275,569
60893,30,121,200,66,35,22,22,26,5908,-2301,-12805,-8018,1636,1235,-753,255,-231,522
60916,30,110,171,53,31,21,23,27,5930,-2393,-12840,-7918,1618,1176,-819,246,-225,516
60930,30,105,160,50,28,24,20,26,5946,-2481,-12883,-7808,1600,1142,-846,311,-264,501
60953,33,116,133,54,24,25,22,20,5942,-2566,-12938,-7691,1626,1175,-955,345,-342,460
60976,36,117,142,56,25,26,21,23,5917,-2660,-12999,-7576,1640,1165,-981,321,-474,433
60999,38,96,133,55,28,25,20,24,5870,-2760,-13065,-7462,1639,1143,-1030,295,-594,402
61013,63,101,132,56,30,29,24,28,5807,-2870,-13134,-7348,1638,1106,-1067,269,-692,398
61035,65,99,125,53,26,25,24,33,5731,-2983,-13204,-7237,1689,1180,-1073,267,-786,395
61059,63,80,120,46,25,26,23,34,5643,-3094,-13273,-7133,1729,1197,-1079,244,-847,344
61073,63,95,95,40,25,25,24,35,5546,-3202,-13338,-7039,1730,1206,-1018,220,-908,303
61095,64,104,116,40,25,25,23,35,5443,-3303,-13402,-6949,1703,1158,-990,226,-936,245
61119,41,106,129,39,25,22,22,32,5342,-3392,-13466,-6860,1681,1101,-1009,235,-904,178
61133,37,106,147,40,25,21,22,29,5256,-3473,-13520,-6780,1676,1056,-1031,201,-793,156
61155,42,115,143,38,26,18,22,27,5186,-3543,-13564,-6711,1669,1017,-1056,158,-664,130
61179,40,107,149,42,27,17,26,24,5143,-3604,-13595,-6648,1636,1005,-1024,163,-507,164
61193,38,99,133,39,26,17,30,23,5116,-3660,-13622,-6581,1614,962,-1033,195,-413,181
61215,38,94,114,37,23,18,30,24,5096,-3711,-13644,-6522,1583,991,-1078,169,-332,194
61239,38,103,92,41,24,18,30,26,5081,-3755,-13662,-6471,1547,1045,-1125,147,-255,201
61253,35,97,98,41,28,18,28,27,5074,-3799,-13674,-6427,1537,1075,-1146,116,-189,228
61275,34,84,91,42,32,20,33,28,5068,-3837,-13683,-6390,1523,1103,-1159,104,-154,219
61299,34,100,108,45,36,22,33,34,5063,-3866,-13690,-6361,1522,1124,-1172,83,-110,174
61313,32,108,109,41,39,21,31,33,5055,-3886,-13696,-6342,1564,1135,-1189,52,-97,109
61336,32,111,111,37,39,21,31,34,5043,-3900,-13700,-6334,1561,1151,-1155,8,-101,63
61358,31,110,99,36,34,23,33,33,5032,-3910,-13704,-6329,1573,1118,-1145,4,-95,21
61373,30,112,130,32,30,21,25,34,5021,-3915,-13708,-6325,1566,1092,-1142,2,-77,-12
61396,28,102,140,27,27,18,19,28,5016,-3915,-13710,-6325,1548,1067,-1118,-11,-41,-29
61426,30,107,141,32,24,19,20,33,5016,-3915,-13710,-6324,1520,1061,-1123,-2,8,-16
61433,28,97,144,36,24,19,24,29,5019,-3913,-13708,-6328,1512,1035,-1122,-31,29,-29
61456,24,95,151,37,26,17,22,28,5021,-3909,-13703,-6340,1501,1019,-1111,-73,45,-48
61478,22,101,141,38,25,18,25,27,5023,-3906,-13698,-6351,1487,1043,-1124,-73,56,-36
61493,34,106,125,45,24,20,27,28,5024,-3907,-13692,-6361,1494,1042,-1126,-78,35,-14
61516,32,85,128,46,25,21,28,22,5020,-3912,-13688,-6372,1443,1079,-1119,-80,17,17
61539,34,96,126,41,24,21,25,23,5007,-3925,-13683,-6383,1444,1092,-1080,-98,-59,38
61553,35,103,126,41,25,20,24,27,4983,-3937,-13680,-6402,1475,1098,-1057,-133,-118,-17
61576,37,128,122,41,29,20,22,27,4951,-3950,-13677,-6425,1496,1136,-1060,-156,-155,-28
61598,29,148,125,36,28,19,21,29,4915,-3967,-13674,-6448,1488,1157,-1032,-159,-195,-14
61613,35,159,115,29,27,21,20,30,4882,-3985,-13671,-6470,1465,1115,-974,-146,-203,-13
61636,36,155,111,29,30,21,20,30,4852,-4000,-13668,-6488,1444,1084,-960,-121,-186,-22
61658,43,164,127,30,29,22,22,27,4829,-4007,-13667,-6505,1442,1092,-981,-100,-137,-43
61673,43,140,125,29,27,20,23,28,4809,-4010,-13664,-6523,1415,1094,-942,-84,-111,-50
61696,45,108,117,25,28,22,22,25,4796,-4006,-13659,-6545,1396,1133,-958,-86,-44,-50
61718,42,94,116,23,28,22,24,25,4794,-4004,-13649,-6569,1389,1124,-932,-90,6,-23
61733,42,88,114,22,24,22,26,25,4802,-3999,-13636,-6592,1369,1101,-931,-79,67,-5
61755,37,66,85,21,27,22,26,24,4820,-3993,-13621,-6615,1380,1093,-926,-73,123,11
61778,41,73,77,22,27,23,28,24,4850,-3983,-13603,-6635,1425,1085,-948,-57,186,5
61793,39,75,85,22,25,21,32,27,4886,-3970,-13587,-6650,1441,1102,-985,-24,230,15
61815,42,86,96,23,25,20,31,26,4924,-3955,-13570,-6665,1406,1112,-998,-22,262,32
61838,42,110,107,27,25,22,29,26,4973,-3939,-13549,-6681,1379,1141,-968,-9,324,80
61853,40,107,112,34,24,22,28,26,5020,-3927,-13528,-6695,1369,1104,-945,-13,307,83
61875,36,122,126,34,23,21,26,25,5068,-3914,-13508,-6707,1394,1109,-939,3,298,82
61898,42,122,124,36,28,22,18,22,5109,-3899,-13493,-6714,1387,1117,-917,37,260,65
61913,49,118,162,49,32,22,16,29,5149,-3888,-13481,-6715,1379,1095,-876,70,219,85
61935,48,108,158,48,33,21,23,31,5193,-3877,-13472,-6705,1372,1109,-861,136,218,119
61958,48,113,166,47,34,21,24,33,5240,-3861,-13465,-6691,1386,1138,-866,181,235,124
61981,50,97,180,54,33,22,23,33,5286,-3839,-13461,-6676,1447,1122,-873,193,232,69
61995,46,98,209,60,31,21,23,33,5334,-3806,-13456,-6667,1513,1187,-947,184,290,19
62018,37,105,220,78,29,20,27,28,5384,-3764,-13452,-6659,1584,1219,-964,196,310,-19
62041,34,93,235,90,34,19,21,25,5425,-3717,-13450,-6657,1591,1222,-960,177,284,-80
62055,33,96,239,89,30,19,20,24,5459,-3666,-13451,-6654,1551,1217,-975,178,274,-111
62078,32,101,218,84,31,19,23,23,5479,-3615,-13459,-6649,1575,1199,-985,175,194,-157
62101,29,100,194,86,33,23,30,22,5482,-3567,-13471,-6648,1576,1213,-1022,128,115,-194
62115,26,94,183,67,34,25,28,20,5468,-3532,-13485,-6651,1553,1205,-1024,67,25,-184
62138,28,99,167,53,31,26,28,20,5445,-3511,-13500,-6651,1501,1138,-1007,38,-61,-147
62161,28,90,151,53,36,27,31,19,5418,-3501,-13516,-6646,1453,1068,-984,27,-112,-121
62175,27,85,155,58,35,26,30,20,5389,-3500,-13532,-6638,1446,1001,-969,7,-152,-100
62198,26,88,164,52,32,25,26,21,5362,-3508,-13545,-6628,1458,990,-951,5,-175,-56
62221,29,85,116,48,31,23,25,24,5341,-3524,-13557,-6613,1443,999,-954,14,-166,13
62235,39,81,114,48,32,22,27,24,5330,-3547,-13564,-6594,1445,986,-956,28,-135,77
62258,41,83,122,50,26,25,27,24,5330,-3566,-13571,-6570,1421,1005,-953,74,-75,106
62281,40,80,131,47,31,24,27,24,5335,-3577,-13578,-6546,1454,1001,-960,95,-41,79
62295,40,78,133,46,35,24,24,23,5343,-3585,-13582,-6525,1448,1046,-985,91,0,88
62318,38,89,139,50,35,24,28,20,5356,-3596,-13582,-6508,1491,1070,-961,80,5,106
62341,28,90,136,48,32,24,28,22,5366,-3606,-13583,-6493,1523,1070,-988,61,-3,89
62355,26,89,147,50,32,22,27,22,5374,-3611,-13584,-6481,1514,1070,-1009,54,16,57
62378,24,91,172,51,29,22,27,23,5383,-3613,-13586,-6470,1504,1048,-1050,45,47,40
62401,23,91,165,53,25,21,27,25,5396,-3611,-13586,-6459,1485,1039,-1065,41,84,38
62415,23,78,159,52,23,20,25,30,5407,-3612,-13587,-6448,1472,1024,-1053,36,69,42
62438,39,115,201,54,24,21,28,29,5412,-3618,-13590,-6433,1447,997,-1060,38,28,53
62461,39,122,203,54,29,23,27,28,5413,-3630,-13595,-6416,1442,1020,-1064,40,-8,90
62475,39,117,172,51,28,23,26,30,5410,-3645,-13600,-6398,1472,1051,-1054,47,-44,101
62498,39,115,172,52,28,22,27,28,5405,-3663,-13605,-6383,1473,1049,-1014,39,-79,105
62521,40,121,200,55,32,22,26,23,5399,-3680,-13607,-6372,1484,1062,-982,29,-87,97
62535,23,93,198,58,32,20,18,23,5395,-3698,-13608,-6363,1500,1070,-964,27,-86,108
62558,23,87,197,57,29,18,23,27,5396,-3713,-13608,-6354,1501,1076,-963,36,-55,111
62581,25,89,199,59,29,18,24,26,5405,-3724,-13605,-6346,1491,1065,-970,41,4,106
62595,27,91,191,55,31,18,22,26,5416,-3729,-13603,-6337,1491,1048,-943,66,12,80
62618,27,105,190,65,28,17,23,25,5422,-3732,-13606,-6325,1461,1041,-960,81,-3,72
62641,33,109,161,67,29,19,25,29,5428,-3739,-13608,-6313,1503,1047,-1002,66,-10,76
62655,33,108,143,61,27,18,25,30,5438,-3748,-13606,-6303,1556,1057,-1012,48,8,89
62678,30,109,143,61,27,19,25,31,5448,-3756,-13605,-6292,1559,1033,-1009,53,5,80
62701,29,110,155,62,24,19,25,30,5454,-3765,-13607,-6277,1571,1041,-1023,70,-23,78
62715,38,119,123,50,25,22,26,34,5458,-3775,-13609,-6263,1559,1029,-1022,58,-33,82
62738,37,115,109,42,27,21,29,31,5461,-3790,-13608,-6252,1559,1019,-1016,29,-39,95
62761,37,110,141,42,27,21,24,29,5463,-3805,-13609,-6240,1594,1017,-1017,39,-57,82
62775,38,113,161,42,27,20,27,29,5464,-3817,-13611,-6227,1556,1016,-1014,51,-57,84
62798,37,119,153,37,28,21,27,30,5461,-3831,-13613,-6215,1523,1001,-1022,34,-59,82
62821,28,91,169,39,26,18,25,29,5461,-3847,-13613,-6206,1534,983,-1020,13,-55,85
62843,23,88,177,44,21,17,20,28,5465,-3862,-13612,-6197,1549,980,-1038,12,-22,89
62858,21,94,177,61,27,21,25,28,5475,-3878,-13605,-6193,1579,981,-1020,-11,7,106
62881,23,89,166,63,29,22,23,29,5485,-3895,-13598,-6188,1543,974,-1023,-9,12,110
62903,23,83,164,65,32,24,25,29,5498,-3909,-13591,-6181,1565,961,-1016,4,25,106
62918,22,80,156,63,35,29,31,30,5512,-3923,-13586,-6173,1560,967,-1016,19,24,107
62941,24,79,161,61,36,31,33,28,5525,-3935,-13580,-6165,1549,951,-1036,12,39,103
62963,25,74,138,47,39,30,32,26,5539,-3948,-13574,-6158,1544,940,-1032,6,45,101
62979,23,77,138,65,63,36,32,22,5553,-3960,-13569,-6150,1555,923,-1030,12,37,95
63001,22,79,156,70,65,39,32,25,5572,-3977,-13561,-6140,1616,915,-1026,11,44,118
63023,25,78,141,73,68,37,27,24,5603,-4001,-13546,-6129,1719,951,-1086,-2,91,183
63038,36,92,120,78,91,41,29,29,5636,-4022,-13533,-6112,1652,932,-1067,46,110,193
63061,39,104,142,96,108,63,39,31,5685,-4042,-13516,-6092,1613,897,-1024,72,187,234
63083,55,123,139,99,119,75,46,42,5737,-4060,-13500,-6068,1611,895,-1037,105,209,251
63098,76,120,124,102,158,76,52,43,5810,-4078,-13472,-6048,1709,903,-1058,85,327,288
63121,80,119,121,102,195,103,62,49,5889,-4075,-13445,-6033,1795,941,-1071,120,391,200
63143,86,117,136,148,248,175,97,67,5951,-4054,-13429,-6023,1663,922,-1068,132,374,78
63158,89,118,128,182,265,209,111,75,6028,-4031,-13400,-6025,1649,888,-1036,69,490,93
63181,85,119,141,243,303,221,116,76,6079,-4017,-13386,-6015,1663,875,-1039,95,312,74
63211,82,134,169,293,392,289,153,96,6125,-4000,-13372,-6012,1683,899,-993,79,281,47
63218,82,140,179,323,430,312,163,98,6151,-3983,-13364,-6012,1699,893,-997,47,187,-12
63241,74,133,167,324,455,280,145,86,6153,-3955,-13367,-6022,1615,894,-986,16,101,-130
63263,81,132,162,309,460,263,138,83,6128,-3929,-13380,-6037,1619,898,-979,-29,-43,-208
63278,80,111,144,270,442,254,135,81,6088,-3909,-13397,-6052,1612,845,-975,-65,-137,-243
63301,67,88,108,217,354,174,90,54,6051,-3900,-13408,-6070,1582,843,-968,-109,-129,-183
63323,62,87,100,171,286,109,65,42,6021,-3899,-13412,-6092,1558,842,-919,-141,-111,-132
63338,64,88,110,128,184,104,65,45,5987,-3906,-13416,-6112,1556,871,-946,-153,-136,-85
63361,51,74,142,114,132,71,58,36,5957,-3921,-13416,-6133,1582,894,-968,-177,-123,-35
63384,46,92,150,92,89,47,47,30,5937,-3939,-13408,-6158,1609,899,-913,-191,-98,-9
63398,47,95,151,81,74,42,44,32,5906,-3956,-13408,-6176,1588,923,-935,-155,-156,-20
63421,45,89,154,82,80,41,42,32,5876,-3967,-13412,-6190,1603,953,-949,-112,-152,-33
63444,38,94,169,91,88,47,42,28,5865,-3974,-13405,-6211,1626,946,-810,-103,-87,-25
63458,37,100,137,97,94,51,37,28,5873,-3972,-13396,-6224,1649,957,-877,-39,34,-4
63481,31,98,140,94,92,52,37,27,5884,-3971,-13389,-6230,1616,958,-907,-10,58,21
63504,29,93,135,93,91,52,37,25,5897,-3962,-13380,-6241,1588,990,-886,-7,93,4
63518,26,99,175,94,79,49,35,27,5905,-3950,-13375,-6252,1570,972,-875,-3,74,-27
63541,27,99,193,93,88,54,30,28,5908,-3938,-13373,-6262,1553,958,-890,-4,49,-43
63564,25,96,196,86,87,50,29,23,5920,-3926,-13366,-6273,1548,970,-886,-11,108,-15
63578,29,89,190,85,92,50,30,23,5926,-3917,-13362,-6281,1534,955,-884,-4,65,-12
63601,30,94,200,86,93,51,29,26,5931,-3912,-13358,-6288,1545,958,-865,-9,40,1
63624,30,87,160,79,92,52,29,24,5933,-3910,-13355,-6294,1557,953,-886,-16,24,4
63638,28,75,114,66,72,35,25,21,5935,-3911,-13352,-6297,1554,941,-881,-6,14,22
63661,38,73,120,60,77,42,27,23,5933,-3918,-13352,-6295,1555,946,-892,-1,-27,41
63684,34,64,122,60,75,42,24,22,5934,-3926,-13351,-6291,1536,952,-893,10,-12,74
63698,32,67,110,60,79,40,23,19,5934,-3938,-13352,-6282,1558,948,-891,30,-40,85
63729,34,69,120,57,84,42,29,24,5928,-3950,-13355,-6272,1572,952,-895,32,-79,80
63744,36,70,123,62,79,43,32,24,5921,-3965,-13360,-6260,1598,958,-905,37,-95,82
63758,24,67,111,65,62,34,30,24,5914,-3978,-13365,-6247,1614,941,-908,43,-101,72
63781,32,86,112,64,63,35,35,23,5905,-3993,-13372,-6231,1602,922,-914,54,-119,69
63804,34,87,108,60,53,32,35,26,5906,-4005,-13376,-6214,1610,899,-894,65,-76,76
63826,35,92,108,58,46,28,30,24,5911,-4016,-13380,-6194,1621,894,-954,75,-28,84
63842,39,114,108,49,44,27,28,24,5921,-4026,-13381,-6174,1634,895,-952,84,-12,95
63864,40,128,103,41,42,25,29,25,5929,-4034,-13385,-6154,1640,891,-977,81,-13,76
63886,37,119,94,41,33,21,24,25,5931,-4042,-13391,-6134,1641,892,-1011,74,-26,60
63901,34,115,98,53,45,31,24,20,5921,-4050,-13401,-6115,1636,894,-1023,62,-88,35
63924,31,118,94,54,43,31,25,19,5914,-4062,-13407,-6101,1660,880,-978,38,-95,40
63946,28,98,96,55,44,31,24,20,5914,-4076,-13411,-6084,1672,866,-977,46,-70,68
63961,27,80,95,56,43,33,23,19,5923,-4086,-13409,-6072,1707,881,-1005,32,-3,71
63984,25,85,100,53,41,34,22,20,5927,-4095,-13409,-6063,1703,882,-1015,20,-12,45
64006,25,87,96,39,30,26,21,22,5925,-4096,-13413,-6054,1673,883,-1076,16,-2,-2
64021,25,72,84,37,28,23,22,20,5911,-4098,-13422,-6047,1641,871,-1064,5,-63,-29
64044,23,75,75,40,28,22,25,23,5886,-4106,-13435,-6037,1605,828,-1061,-15,-137,-39
64066,34,84,88,41,30,24,26,23,5854,-4119,-13450,-6027,1607,850,-1044,-18,-194,-18
64081,41,75,85,39,30,26,30,27,5817,-4137,-13464,-6018,1601,874,-1023,-27,-236,0
64104,41,72,80,35,28,25,31,27,5786,-4153,-13477,-6007,1588,877,-1013,1,-211,12
64126,49,91,82,34,28,24,31,28,5757,-4172,-13487,-6000,1580,857,-994,-31,-207,21
64141,56,92,86,34,28,26,27,26,5731,-4181,-13497,-5997,1539,898,-971,-6,-167,-1
64164,49,83,73,31,29,24,30,24,5721,-4170,-13513,-5978,1557,924,-980,150,-94,-38
64186,44,86,72,35,30,21,26,20,5720,-4146,-13527,-5962,1697,906,-1043,147,-28,-116
64201,48,90,86,36,29,21,26,22,5722,-4118,-13534,-5966,1778,911,-1023,58,5,-183
64224,40,70,103,40,31,22,26,22,5725,-4089,-13539,-5970,1693,909,-1047,53,51,-160
64246,28,64,110,38,34,21,26,22,5728,-4075,-13542,-5971,1610,893,-1045,24,40,-71
64261,29,67,109,41,32,22,20,23,5731,-4078,-13538,-5976,1590,899,-1006,-29,14,14
64291,35,119,131,38,29,22,18,25,5738,-4089,-13530,-5978,1601,902,-1007,-30,20,74
5,Repeat 1,,,,,,,,,,,,,,,,,
20,32,131,123,36,30,21,26,28,5750,-4105,-13520,-5980,1601,916,-1010,-21,19,51
50,33,134,119,35,26,22,28,27,5752,-4109,-13515,-5987,1587,940,-1014,-31,24,39
65,33,143,121,33,25,21,29,28,5753,-4112,-13511,-5992,1577,925,-1006,-28,12,26
80,34,112,99,33,30,24,31,25,5752,-4111,-13511,-5993,1567,912,-1013,-16,4,0
103,36,106,92,33,30,28,31,24,5752,-4111,-13511,-5993,1558,919,-986,7,8,-8
125,42,111,86,31,29,29,26,20,5752,-4107,-13513,-5992,1575,882,-1002,18,-3,-19
140,41,111,89,34,29,29,24,21,5751,-4107,-13513,-5992,1563,881,-1002,11,-3,-7
163,41,97,87,30,29,28,26,23,5751,-4107,-13513,-5992,1573,883,-998,8,-14,7
193,36,87,98,33,27,26,23,24,5751,-4110,-13513,-5990,1576,881,-1015,3,-7,17
200,36,80,96,33,27,27,26,23,5754,-4115,-13511,-5989,1605,886,-1007,-8,-5,31
223,27,74,102,39,30,27,27,23,5758,-4119,-13509,-5988,1620,897,-1009,2,3,30
246,29,71,96,40,30,26,27,23,5761,-4122,-13509,-5982,1610,897,-1023,27,-2,27
260,32,76,96,40,32,26,25,22,5762,-4124,-13510,-5976,1591,895,-1024,27,-2,27
283,32,73,94,38,34,28,27,22,5764,-4124,-13511,-5972,1600,910,-1026,30,1,22
305,31,75,96,39,33,23,24,24,5763,-4124,-13514,-5968,1612,900,-1041,20,-11,4
319,29,77,91,38,32,22,19,24,5763,-4124,-13514,-5967,1614,896,-1053,8,-9,2
344,41,90,98,35,32,21,20,27,5762,-4128,-13514,-5965,1593,894,-1045,0,-5,24
365,40,89,102,39,30,24,19,26,5761,-4133,-13515,-5960,1595,870,-1020,10,-23,26
388,39,87,99,41,28,20,17,25,5759,-4135,-13517,-5956,1601,868,-1019,10,-26,4
403,38,87,102,41,26,22,18,22,5757,-4139,-13517,-5954,1622,873,-1036,-6,-21,6
426,40,83,108,40,26,20,19,23,5758,-4139,-13517,-5954,1646,879,-1036,-15,-15,6
440,25,65,105,39,27,19,20,17,5761,-4145,-13514,-5953,1635,871,-1023,-12,-1,25
463,23,65,120,40,31,18,21,18,5765,-4150,-13512,-5952,1630,875,-1039,-10,9,25
493,26,74,118,40,30,20,21,20,5770,-4152,-13509,-5952,1630,878,-1032,-7,18,18
508,26,77,114,38,32,20,22,23,5769,-4152,-13509,-5952,1599,894,-1042,-16,11,6
523,24,70,106,37,32,22,21,23,5767,-4154,-13509,-5954,1599,888,-1044,-20,-3,0
546,25,74,113,37,35,23,23,24,5762,-4156,-13510,-5955,1600,872,-1044,-21,-21,-6
568,25,78,119,32,33,22,21,24,5754,-4160,-13512,-5956,1596,875,-1028,-25,-42,-3
583,21,74,118,33,36,24,24,22,5747,-4164,-13512,-5958,1605,895,-1046,-28,-31,5
606,24,66,117,32,34,24,27,20,5744,-4170,-13511,-5960,1597,887,-1011,-20,-28,22
628,29,73,132,34,33,24,29,20,5741,-4174,-13511,-5960,1597,875,-1006,-13,-29,6
651,30,69,124,33,35,25,26,19,5741,-4174,-13511,-5960,1579,866,-1007,-11,-14,-8
666,28,64,104,37,35,28,28,20,5741,-4174,-13511,-5960,1587,882,-1046,-8,-9,2
688,29,85,115,38,30,25,25,20,5740,-4179,-13510,-5961,1594,884,-1024,-20,-12,23
703,29,99,124,43,30,25,23,19,5739,-4187,-13507,-5963,1623,883,-1024,-28,-21,30
726,25,100,120,42,30,24,23,20,5738,-4193,-13505,-5963,1613,901,-1012,-10,-18,33
748,28,103,127,43,23,23,23,20,5738,-4197,-13504,-5963,1598,892,-999,2,-23,23
763,28,106,123,40,21,19,22,17,5736,-4198,-13505,-5962,1600,898,-1017,6,-18,12
786,30,95,112,37,23,20,22,17,5736,-4198,-13505,-5962,1583,893,-1012,13,-14,2
808,29,83,109,30,25,20,20,19,5736,-4198,-13505,-5962,1583,878,-1016,5,-12,1
824,28,94,119,31,25,20,19,20,5736,-4198,-13505,-5962,1599,860,-1032,-2,1,6
846,25,91,105,30,28,21,19,21,5736,-4198,-13505,-5962,1623,878,-1045,-13,-8,13
876,30,90,102,29,27,21,19,22,5735,-4204,-13504,-5961,1622,875,-1044,-17,-16,20
883,28,82,101,27,29,21,19,21,5731,-4211,-13504,-5960,1616,878,-1053,-21,-26,21
906,27,81,108,30,27,20,21,20,5725,-4216,-13506,-5957,1602,870,-1056,-9,-36,11
928,28,71,89,33,30,20,20,18,5717,-4220,-13509,-5954,1594,876,-1060,-7,-44,3
942,30,86,95,38,28,22,21,22,5711,-4225,-13510,-5954,1609,885,-1041,-18,-40,8
966,26,87,118,37,28,23,24,23,5706,-4229,-13511,-5955,1620,874,-1048,-21,-35,-6
988,26,87,126,38,24,23,23,24,5702,-4230,-13512,-5956,1623,876,-1048,-15,-23,-12
1011,25,87,114,38,29,23,22,24,5700,-4231,-13511,-5958,1613,879,-1038,-19,-10,-5
1026,28,83,110,37,25,27,25,25,5699,-4232,-13510,-5961,1634,866,-1039,-24,-8,-15
1048,25,66,109,33,23,26,26,20,5697,-4232,-13510,-5965,1640,866,-1061,-32,-5,-29
1062,25,63,99,34,24,26,21,20,5691,-4232,-13510,-5969,1634,869,-1065,-39,-18,-35
1086,25,69,85,36,27,28,23,22,5686,-4233,-13510,-5975,1614,883,-1080,-46,-6,-25
1108,26,73,83,33,27,27,23,22,5680,-4236,-13509,-5979,1637,869,-1055,-45,-25,-24
1122,26,73,88,33,39,35,27,23,5672,-4235,-13510,-5986,1634,892,-1057,-45,-29,-41
1146,38,80,89,44,97,72,49,34,5668,-4234,-13508,-5994,1642,890,-1051,-50,-14,-41
1168,38,82,82,59,115,89,60,39,5692,-4244,-13493,-5998,1720,855,-1088,-55,121,67
1182,41,90,82,83,134,92,61,40,5729,-4242,-13476,-6003,1705,881,-1033,-6,191,59
1206,46,93,103,94,167,106,65,40,5786,-4233,-13452,-6010,1733,904,-1013,25,305,78
1228,45,91,97,105,194,108,68,40,5851,-4220,-13424,-6017,1676,902,-994,37,373,101
1242,38,87,90,155,216,96,57,34,5926,-4201,-13395,-6023,1631,875,-956,66,441,99
1265,48,91,110,170,258,134,65,48,6029,-4175,-13350,-6038,1689,832,-933,35,614,103
1288,49,91,119,168,294,161,78,51,6129,-4144,-13313,-6042,1664,857,-1060,87,654,107
1302,47,100,132,165,279,153,76,52,6192,-4106,-13292,-6049,1636,888,-985,87,456,-6
1325,49,98,134,159,263,154,72,54,6222,-4065,-13283,-6065,1590,869,-988,21,312,-125
1348,48,96,137,125,235,151,72,54,6217,-4041,-13282,-6088,1571,858,-1004,-87,122,-147
1362,39,93,135,109,182,111,59,37,6196,-4030,-13282,-6116,1613,854,-957,-150,0,-151
1385,38,99,136,106,112,72,42,33,6179,-4030,-13277,-6144,1618,830,-916,-172,-16,-98
1408,36,86,116,112,120,76,41,33,6164,-4037,-13272,-6166,1653,854,-911,-155,-36,-51
1430,35,85,120,121,140,73,47,31,6153,-4040,-13267,-6185,1641,892,-881,-111,-26,-39
1445,39,86,120,118,153,74,45,32,6152,-4042,-13258,-6204,1650,892,-843,-99,12,-17
1468,38,77,104,122,162,68,42,31,6157,-4042,-13248,-6220,1667,904,-883,-83,58,-12
1490,41,59,99,120,171,72,47,34,6158,-4036,-13240,-6241,1609,908,-860,-88,61,-43
1505,46,97,103,121,178,89,53,37,6156,-4033,-13232,-6261,1611,899,-867,-101,40,-37
1528,46,101,100,122,169,94,52,35,6163,-4030,-13220,-6282,1625,903,-818,-86,74,-19
1550,44,100,101,118,166,100,55,40,6170,-4024,-13210,-6299,1613,912,-845,-69,85,-21
1565,46,112,96,114,166,107,58,43,6176,-4016,-13202,-6315,1627,933,-857,-58,83,-27
1588,49,112,89,108,144,104,55,40,6174,-4009,-13198,-6331,1606,952,-849,-54,40,-37
1610,42,92,94,104,137,86,47,37,6167,-4004,-13195,-6346,1586,969,-841,-52,9,-23
1625,42,91,95,92,129,78,44,37,6152,-4000,-13198,-6358,1574,948,-843,-50,-40,-46
1648,40,95,109,80,109,68,39,31,6134,-3997,-13203,-6367,1569,938,-817,-33,-78,-54
1670,39,96,119,78,88,52,33,27,6110,-3997,-13212,-6371,1550,933,-815,-11,-125,-46
1685,36,96,119,78,89,41,27,23,6091,-3998,-13219,-6374,1530,935,-792,-3,-113,-24
1708,35,83,111,67,72,39,29,23,6078,-4001,-13224,-6375,1543,928,-804,-2,-83,4
1730,34,90,116,74,60,35,23,22,6072,-4004,-13228,-6371,1545,919,-792,31,-63,19
1745,34,89,101,75,58,34,24,23,6064,-4007,-13235,-6361,1536,927,-808,58,-82,30
1768,32,77,96,59,56,33,23,23,6053,-4014,-13244,-6348,1573,951,-869,62,-96,51
1790,24,79,93,58,48,33,24,24,6033,-4024,-13257,-6333,1606,944,-874,55,-161,33
1805,25,97,96,56,48,33,21,22,6001,-4037,-13276,-6316,1608,960,-900,55,-232,15
1828,24,94,105,46,45,30,21,19,5977,-4053,-13288,-6303,1626,951,-870,36,-205,42
1850,26,94,107,46,42,33,30,25,5952,-4072,-13300,-6289,1615,936,-912,23,-201,56
1865,27,96,111,51,38,35,29,24,5938,-4089,-13307,-6276,1669,945,-893,31,-158,64
1888,28,90,115,55,35,33,29,24,5918,-4103,-13321,-6258,1666,928,-932,58,-184,32
1910,37,72,120,55,33,34,31,25,5901,-4115,-13332,-6241,1658,906,-918,55,-167,26
1925,37,65,109,52,32,34,32,24,5895,-4126,-13339,-6225,1643,874,-933,49,-97,39
1948,35,64,115,48,29,26,26,22,5896,-4134,-13344,-6207,1623,868,-961,66,-45,46
1970,34,55,105,41,31,24,25,22,5900,-4138,-13350,-6189,1624,853,-940,83,-32,36
1985,33,56,105,35,26,24,25,22,5903,-4143,-13357,-6167,1625,848,-971,90,-35,36
2008,22,74,84,43,27,20,23,22,5905,-4147,-13363,-6150,1640,847,-971,71,-36,22
2030,23,74,80,41,31,20,25,23,5912,-4152,-13365,-6136,1677,831,-991,45,-3,29
2045,24,72,69,43,36,24,20,20,5929,-4157,-13361,-6124,1703,859,-1043,32,73,56
2068,24,78,85,46,35,25,21,23,5945,-4170,-13355,-6111,1681,845,-1031,15,61,99
2090,26,83,88,45,38,29,22,24,5957,-4185,-13351,-6099,1665,863,-1010,17,28,108
2105,25,66,108,41,37,29,27,22,5960,-4202,-13350,-6086,1654,874,-1016,13,-19,106
2128,26,68,109,39,34,29,24,23,5956,-4216,-13353,-6076,1649,879,-991,11,-60,76
2150,24,66,109,39,29,26,26,23,5946,-4228,-13357,-6066,1653,866,-981,11,-90,42
2165,24,60,126,40,34,26,25,19,5931,-4237,-13365,-6058,1651,872,-981,13,-117,9
2188,25,63,128,40,31,21,25,17,5915,-4243,-13373,-6052,1643,864,-980,6,-107,-10
2211,27,73,123,37,31,20,20,21,5903,-4247,-13379,-6048,1653,852,-961,7,-100,-21
2225,27,78,125,36,33,22,19,19,5895,-4245,-13385,-6043,1662,869,-976,28,-61,-31
2248,26,83,127,33,34,29,22,20,5892,-4242,-13390,-6037,1643,856,-974,36,-36,-28
2270,27,85,98,30,33,32,23,23,5890,-4237,-13393,-6035,1637,866,-976,22,-13,-28
2285,29,79,92,34,37,33,21,23,5889,-4234,-13395,-6035,1647,868,-992,7,-6,-23
2308,30,79,82,33,37,34,21,19,5890,-4234,-13395,-6035,1656,860,-972,6,-15,-13
2330,30,88,73,34,35,32,22,23,5890,-4235,-13395,-6034,1637,857,-994,3,7,2
2345,38,98,77,33,32,27,20,23,5892,-4239,-13394,-6030,1621,855,-987,10,-3,31
2368,39,102,74,34,32,25,22,23,5891,-4245,-13396,-6022,1564,854,-980,22,-17,42
2390,42,105,73,30,29,32,30,28,5890,-4246,-13401,-6013,1585,846,-972,49,-25,20
2,Repeat 2,,,,,,,,,,,,,,,,,
17,207,197,124,55,57,52,50,69,5904,-4230,-13407,-5997,1534,869,-907,116,66,-11
40,331,257,181,69,62,56,58,117,5927,-4155,-13444,-5943,1410,870,-893,535,116,-190
62,361,265,187,73,64,62,64,123,5944,-4014,-13531,-5824,1207,713,-978,1004,112,-462
77,380,268,192,74,67,62,67,123,5904,-3851,-13653,-5689,1137,815,-1224,1091,-90,-636
100,376,277,197,69,61,69,69,124,5813,-3698,-13799,-5530,1221,976,-1246,1216,-472,-635
122,347,251,174,60,51,68,62,116,5701,-3622,-13932,-5361,1478,1037,-1187,1103,-825,-307
137,245,188,132,50,48,65,56,73,5565,-3646,-14032,-5224,1641,880,-1166,641,-1104,2
160,203,193,125,45,44,60,51,63,5457,-3741,-14069,-5172,1888,870,-1015,57,-1022,254
182,164,201,118,41,40,55,41,62,5452,-3857,-14027,-5204,2187,792,-852,-378,-470,388
197,145,183,146,53,46,47,37,63,5505,-3939,-13965,-5256,2018,626,-956,-447,43,296
220,111,151,146,52,43,38,35,51,5588,-3970,-13901,-5312,1813,818,-1050,-300,405,227
242,81,146,123,45,38,37,34,43,5681,-3956,-13847,-5366,1642,1039,-1173,-138,627,149
257,70,121,130,47,37,35,30,40,5755,-3932,-13801,-5424,1594,989,-1253,-188,613,40
280,69,113,137,48,38,35,30,42,5798,-3912,-13762,-5489,1535,902,-1318,-309,505,-55
310,57,106,94,34,26,30,28,29,5821,-3909,-13731,-5546,1512,843,-1344,-342,379,-18
317,44,105,88,31,24,23,23,27,5831,-3927,-13707,-5582,1521,768,-1269,-297,207,48
340,43,122,128,33,23,21,21,26,5837,-3962,-13688,-5596,1549,694,-1230,-240,95,123
362,41,122,132,30,23,20,21,27,5845,-4005,-13673,-5596,1594,693,-1173,-163,27,182
377,36,119,126,30,23,22,24,24,5857,-4044,-13656,-5594,1640,778,-1118,-105,22,206
400,40,121,124,31,23,23,25,23,5874,-4076,-13640,-5594,1711,803,-1088,-82,28,171
422,44,128,126,32,25,21,25,23,5893,-4098,-13622,-5601,1715,844,-1081,-76,70,145
437,41,125,121,31,27,20,25,22,5911,-4109,-13607,-5610,1689,896,-1083,-51,96,107
460,40,125,118,30,29,23,26,24,5926,-4112,-13595,-5621,1643,877,-1114,-57,118,59
482,40,111,113,27,28,20,23,24,5934,-4117,-13585,-5634,1602,844,-1099,-80,94,41
497,42,108,122,29,29,21,23,26,5939,-4129,-13577,-5640,1572,790,-1052,-65,39,67
520,39,107,130,34,30,24,25,27,5937,-4142,-13576,-5634,1568,780,-1062,-16,-23,71
543,37,99,101,40,31,27,26,27,5938,-4157,-13573,-5629,1603,810,-1060,-13,-14,91
557,40,103,90,40,29,25,27,23,5942,-4179,-13562,-5635,1683,834,-1001,-72,-29,109
580,46,112,97,42,30,27,26,25,5954,-4200,-13546,-5646,1749,835,-1008,-88,12,113
602,38,106,110,40,28,26,25,23,5974,-4217,-13528,-5655,1709,813,-1035,-80,92,112
617,39,104,105,40,27,24,24,24,6000,-4230,-13509,-5664,1660,769,-1046,-76,142,106
640,52,130,109,33,33,27,27,28,6020,-4241,-13492,-5673,1632,776,-1067,-85,138,84
662,57,136,111,34,36,26,24,30,6028,-4253,-13483,-5678,1602,776,-1078,-70,75,73
677,52,132,104,39,37,26,25,28,6025,-4259,-13483,-5677,1577,815,-1089,-17,20,52
700,53,125,77,41,38,28,26,29,6013,-4268,-13485,-5677,1596,805,-1075,-41,-46,25
722,55,128,83,37,38,29,25,29,5996,-4272,-13488,-5685,1626,833,-997,-49,-92,-12
737,45,95,80,37,33,25,24,27,5980,-4275,-13492,-5691,1665,833,-997,-33,-102,-30
760,44,86,103,36,29,24,24,26,5969,-4278,-13494,-5695,1675,795,-1014,-30,-71,-30
782,49,91,107,33,30,25,24,28,5966,-4284,-13490,-5702,1665,787,-1001,-55,-30,4
797,49,92,105,33,30,24,24,26,5967,-4289,-13486,-5706,1647,793,-994,-31,-9,16
820,44,102,130,41,31,22,24,23,5968,-4288,-13484,-5713,1652,788,-1020,-37,11,-22
842,43,108,142,45,31,22,27,22,5966,-4283,-13484,-5718,1633,808,-1026,-12,10,-34
857,37,105,128,46,31,24,26,21,5965,-4278,-13485,-5721,1617,811,-1048,-4,16,-27
880,37,108,131,42,27,21,27,20,5961,-4276,-13487,-5720,1626,796,-1029,1,-17,-22
902,43,115,160,48,30,22,27,22,5961,-4276,-13488,-5721,1601,808,-1017,2,9,-9
925,43,96,138,42,30,24,28,23,5961,-4276,-13487,-5721,1618,798,-1012,15,-12,-1
940,41,99,128,43,31,25,24,24,5959,-4276,-13489,-5720,1646,811,-1022,6,-18,-6
962,40,98,124,42,35,24,26,23,5959,-4276,-13488,-5720,1688,810,-1025,-10,-4,-11
985,35,94,125,44,39,25,24,22,5964,-4276,-13485,-5724,1692,804,-1020,-15,17,-3
1007,25,93,103,39,39,24,24,22,5972,-4275,-13481,-5725,1679,804,-1037,-5,39,4
1022,25,92,103,45,40,25,22,23,5978,-4276,-13477,-5726,1655,817,-1059,-7,47,18
1045,33,79,98,43,42,33,24,25,5984,-4278,-13473,-5729,1647,803,-1033,-17,37,21
1060,35,90,100,45,41,33,24,24,5990,-4278,-13470,-5730,1640,825,-1017,1,32,23
1082,35,88,97,47,37,34,24,24,5994,-4277,-13470,-5727,1637,792,-1024,19,18,9
1105,36,95,86,46,33,35,24,22,5994,-4277,-13470,-5726,1633,808,-1047,4,10,-7
1120,40,97,73,43,31,35,27,22,5994,-4277,-13470,-5726,1646,802,-1024,-2,-10,-1
1142,35,100,84,41,30,30,23,20,5994,-4277,-13470,-5726,1612,796,-1007,-5,-10,10
1165,32,92,86,38,33,31,23,21,5996,-4281,-13468,-5726,1659,802,-1022,-6,0,22
1180,32,90,86,37,33,29,22,21,6001,-4287,-13465,-5725,1646,778,-1030,-15,18,33
1202,31,72,81,47,37,29,23,23,6005,-4291,-13461,-5725,1646,789,-1012,-11,14,22
1225,26,72,89,59,71,46,24,25,6005,-4291,-13462,-5725,1646,780,-1030,-7,14,15
1240,37,95,92,59,77,48,23,25,6025,-4303,-13447,-5728,1770,788,-1024,-43,77,82
1262,40,102,95,94,127,68,34,30,6056,-4320,-13428,-5727,1762,801,-1039,-26,129,147
1285,42,101,100,111,163,88,39,31,6100,-4334,-13408,-5717,1774,755,-1004,32,168,166
1299,49,128,100,113,168,90,39,31,6166,-4351,-13378,-5704,1780,764,-1039,54,307,253
1322,51,138,94,141,205,98,44,32,6219,-4355,-13357,-5692,1685,792,-1051,76,288,192
1345,45,125,86,165,254,116,53,37,6270,-4357,-13336,-5684,1741,757,-1017,60,267,148
1359,47,123,84,168,266,120,51,34,6333,-4360,-13309,-5675,1765,765,-1018,70,332,189
1383,48,125,91,176,335,134,63,38,6449,-4340,-13269,-5654,1730,743,-981,112,269,73
1404,42,103,93,186,345,137,66,40,6481,-4323,-13259,-5655,1729,737,-1015,48,234,-2
1427,54,97,108,185,336,134,66,42,6501,-4309,-13249,-5663,1708,725,-989,-7,179,-26
1443,86,118,134,185,352,138,68,50,6514,-4295,-13244,-5672,1698,738,-959,-7,130,-45
1464,90,125,142,192,391,145,75,54,6524,-4279,-13239,-5684,1689,700,-927,-25,112,-85
1487,91,126,132,182,332,128,66,53,6528,-4264,-13234,-5701,1678,712,-959,-60,111,-92
1503,92,130,128,178,325,124,64,52,6529,-4254,-13230,-5717,1701,729,-932,-64,69,-77
1524,89,127,122,180,318,131,69,52,6532,-4248,-13225,-5730,1734,706,-900,-58,44,-65
1547,60,108,90,186,277,111,60,42,6539,-4239,-13217,-5749,1714,744,-879,-67,83,-55
1571,60,109,97,211,256,113,69,47,6546,-4230,-13209,-5766,1701,740,-895,-62,95,-58
1584,57,112,97,231,269,110,68,44,6551,-4221,-13204,-5776,1705,758,-901,-31,69,-42
1607,57,106,99,237,270,112,68,46,6550,-4207,-13202,-5792,1696,780,-904,-42,58,-82
1623,49,103,98,237,268,102,62,43,6545,-4194,-13201,-5812,1697,782,-880,-63,31,-103
1644,51,102,104,223,261,103,64,42,6543,-4180,-13198,-5828,1694,782,-881,-46,50,-85
1667,44,86,82,234,314,106,53,37,6541,-4168,-13199,-5838,1701,808,-884,-11,29,-62
1683,46,90,98,230,336,123,62,42,6537,-4152,-13200,-5852,1716,821,-875,-18,21,-95
1704,43,98,96,233,334,123,62,40,6524,-4137,-13204,-5869,1702,839,-879,-38,-15,-111
1727,45,106,86,242,343,122,62,39,6506,-4124,-13208,-5887,1685,811,-855,-55,-48,-124
1743,54,117,110,269,383,156,77,50,6494,-4113,-13211,-5902,1672,792,-843,-47,-30,-106
1764,50,119,111,238,312,147,74,50,6487,-4110,-13211,-5913,1663,785,-829,-41,-25,-50
1787,51,116,100,232,265,135,67,45,6486,-4105,-13210,-5919,1673,796,-829,-14,-6,-31
1803,55,115,111,225,264,136,69,46,6486,-4099,-13207,-5928,1666,811,-835,-16,19,-28
1824,57,111,115,203,255,131,67,46,6483,-4090,-13208,-5937,1654,831,-841,-13,9,-46
1847,48,104,88,180,182,89,50,34,6473,-4079,-13212,-5947,1630,841,-851,-11,-16,-68
1863,50,108,95,176,158,75,46,28,6459,-4072,-13217,-5955,1633,840,-874,-19,-37,-60
1884,50,118,109,183,156,76,52,32,6454,-4062,-13217,-5966,1629,849,-843,-21,8,-47
1907,44,111,101,178,158,72,49,30,6453,-4053,-13219,-5971,1640,821,-867,8,21,-46
1923,44,110,100,171,149,71,49,30,6446,-4043,-13224,-5972,1641,826,-873,18,-12,-50
1944,50,114,140,152,141,67,44,33,6440,-4040,-13229,-5972,1632,830,-877,13,-20,-17
1967,52,107,137,130,116,56,38,30,6433,-4042,-13231,-5972,1609,841,-848,2,-38,19
1983,51,98,128,88,103,33,25,27,6404,-4046,-13248,-5964,1596,849,-873,31,-178,-16
2006,50,106,140,76,95,28,22,26,6344,-4047,-13282,-5951,1578,855,-910,49,-344,-100
2027,50,108,146,65,68,28,20,26,6263,-4044,-13326,-5939,1572,856,-935,43,-444,-184
2051,34,95,113,48,60,27,20,21,6178,-4042,-13370,-5933,1582,826,-929,2,-476,-223
2066,28,99,124,43,53,25,25,21,6107,-4045,-13401,-5934,1617,809,-907,-43,-411,-188
2087,29,100,120,36,45,24,25,20,6055,-4056,-13422,-5932,1672,810,-909,-43,-341,-106
2103,32,98,116,34,36,24,26,23,6020,-4068,-13437,-5927,1703,838,-948,-18,-256,-51
2126,35,100,110,33,34,21,29,22,6002,-4077,-13446,-5917,1700,844,-986,18,-148,-5
2147,38,105,106,33,32,25,29,23,5998,-4086,-13451,-5904,1706,834,-1001,36,-79,28
2163,38,99,87,32,29,24,24,24,5997,-4093,-13455,-5891,1677,828,-1000,43,-57,29
2184,42,95,109,43,30,24,25,25,5998,-4098,-13458,-5878,1694,843,-1014,49,-33,30
2207,40,87,100,42,27,26,26,23,6000,-4105,-13461,-5865,1674,845,-1045,44,-23,50
2223,37,81,98,41,27,28,24,23,5996,-4118,-13465,-5851,1674,819,-1053,22,-56,55
2244,39,72,95,41,28,25,23,23,5994,-4129,-13468,-5839,1670,803,-1029,20,-57,43
2267,41,73,103,47,30,24,23,22,5994,-4138,-13472,-5823,1655,791,-1016,46,-47,46
2283,39,67,91,42,30,25,23,23,5995,-4148,-13475,-5809,1655,806,-1003,48,-47,54
2304,44,82,102,41,34,23,21,28,5997,-4158,-13474,-5801,1680,827,-999,14,-37,56
2327,42,83,99,41,30,23,21,28,6007,-4166,-13470,-5794,1714,809,-1012,16,8,54
2344,39,78,102,40,30,23,21,28,6024,-4168,-13463,-5791,1701,807,-1032,13,81,36
2364,43,101,104,36,29,22,20,28,6045,-4166,-13455,-5790,1706,805,-1033,8,114,28
2387,40,106,106,31,28,23,19,27,6064,-4165,-13447,-5789,1685,800,-1041,3,111,25
2403,38,97,107,28,22,21,19,22,6074,-4166,-13442,-5790,1667,818,-1070,-17,83,31
2424,38,97,111,28,24,22,18,25,6078,-4171,-13440,-5787,1663,819,-1058,-9,31,37
2447,38,110,111,33,26,22,17,24,6076,-4178,-13440,-5783,1651,807,-1034,-11,-12,32
2463,32,89,100,35,30,23,18,24,6072,-4185,-13440,-5783,1658,828,-1024,-25,-25,26
2484,35,84,90,39,30,25,19,23,6068,-4189,-13439,-5786,1682,828,-1004,-27,-25,7
2507,35,84,77,42,31,27,19,24,6065,-4191,-13438,-5791,1684,830,-982,-26,-27,-8
2523,40,88,70,42,32,24,23,21,6061,-4191,-13438,-5794,1656,828,-974,-13,-27,-12
2544,39,72,92,39,35,23,23,21,6059,-4188,-13439,-5797,1659,823,-982,-6,-9,-25
2567,40,90,97,37,37,24,27,19,6058,-4185,-13438,-5801,1648,815,-975,-9,3,-28
2583,36,105,99,31,37,22,26,17,6061,-4181,-13437,-5803,1647,807,-959,6,10,-21
2604,35,112,102,28,38,23,25,20,6066,-4177,-13436,-5804,1668,814,-976,10,18,-14
2627,30,102,101,27,36,25,27,21,6071,-4174,-13435,-5802,1657,798,-990,13,27,-10
2643,29,110,124,48,35,29,26,23,6077,-4174,-13432,-5803,1652,799,-987,-7,31,3
18,Repeat 3,,,,,,,,,,,,,,,,,
39,29,84,129,51,33,29,24,28,6082,-4175,-13429,-5805,1665,825,-985,-4,10,13
56,23,70,125,52,31,26,32,25,6085,-4177,-13427,-5805,1663,836,-1001,-1,19,20
79,34,86,133,60,37,33,32,27,6085,-4177,-13427,-5805,1671,837,-1007,-13,9,11
99,42,79,94,50,38,32,35,28,6085,-4177,-13427,-5806,1656,828,-972,1,5,-2
116,41,83,91,50,38,32,34,25,6085,-4177,-13427,-5806,1648,822,-995,3,-11,-15
138,41,87,111,52,40,33,33,25,6081,-4178,-13428,-5807,1637,823,-995,-12,-17,-2
159,41,89,121,54,41,35,27,26,6076,-4183,-13428,-5807,1638,805,-978,-21,-39,10
182,41,80,133,47,34,28,27,23,6075,-4187,-13427,-5808,1640,821,-987,-10,-6,19
198,40,99,136,45,32,24,23,21,6077,-4189,-13427,-5805,1638,817,-998,6,5,23
219,40,112,132,39,28,25,26,23,6076,-4189,-13427,-5805,1623,827,-994,7,4,10
242,40,104,113,35,26,24,27,22,6076,-4189,-13427,-5805,1644,826,-992,14,10,-2
264,41,105,103,34,33,24,28,22,6076,-4189,-13427,-5805,1645,831,-1004,12,6,-2
279,33,110,86,31,34,24,26,23,6073,-4190,-13429,-5802,1648,821,-1002,11,-22,6
302,26,116,102,30,35,25,25,23,6070,-4195,-13431,-5800,1641,816,-1004,-3,-24,21
318,26,97,114,35,37,25,22,19,6068,-4202,-13430,-5798,1656,811,-997,-12,-26,30
339,32,104,137,36,36,27,24,22,6068,-4208,-13428,-5798,1654,805,-983,-20,-12,21
362,39,119,140,37,31,25,24,23,6070,-4212,-13427,-5796,1668,803,-998,0,-1,22
378,40,114,133,37,33,24,21,20,6070,-4212,-13427,-5796,1651,799,-1008,14,5,1
399,40,95,120,36,32,24,22,20,6070,-4212,-13427,-5795,1649,791,-1015,12,9,-5
422,40,111,113,35,32,22,23,23,6070,-4212,-13427,-5795,1653,812,-1005,4,-8,6
438,42,127,85,40,33,20,22,22,6070,-4212,-13427,-5795,1654,823,-1016,3,-12,12
459,35,110,80,37,31,21,19,21,6068,-4216,-13427,-5795,1664,809,-994,-12,-17,12
482,35,107,89,36,29,21,19,22,6068,-4217,-13427,-5794,1639,796,-1007,-14,-15,8
498,36,113,89,38,30,20,19,23,6067,-4224,-13426,-5793,1660,780,-1010,-25,-17,21
519,48,150,87,38,30,25,20,23,6067,-4233,-13423,-5793,1664,801,-991,-28,-18,37
542,47,148,88,34,30,25,18,22,6066,-4242,-13421,-5791,1678,810,-993,-11,-30,39
558,47,148,98,41,28,27,19,22,6065,-4246,-13421,-5790,1672,826,-993,-1,-22,20
579,50,158,106,43,32,27,22,24,6065,-4245,-13421,-5790,1657,834,-996,-1,0,14
603,52,168,115,45,32,28,23,23,6064,-4245,-13421,-5790,1663,821,-1012,6,12,0
618,39,125,112,44,31,23,22,22,6066,-4242,-13421,-5790,1659,809,-1004,7,16,-11
639,37,109,112,44,32,23,22,21,6066,-4243,-13421,-5790,1655,803,-1014,3,13,-15
662,40,128,111,40,34,21,22,21,6066,-4243,-13421,-5789,1666,789,-1011,-15,-4,1
678,36,119,127,47,33,24,21,21,6063,-4248,-13422,-5788,1643,791,-1015,-21,-17,13
699,30,93,117,48,33,23,20,20,6060,-4252,-13421,-5789,1659,802,-993,-15,-25,8
722,30,98,118,46,33,24,19,18,6056,-4254,-13423,-5789,1660,816,-992,-6,-33,-2
738,33,116,142,47,32,24,20,23,6051,-4257,-13424,-5789,1645,812,-1001,-10,-30,2
759,30,103,144,46,32,24,22,21,6048,-4261,-13424,-5789,1646,806,-992,-14,-25,12
789,30,107,128,36,34,23,20,21,6046,-4265,-13424,-5789,1646,806,-980,-6,-20,17
798,33,105,127,31,32,21,21,20,6046,-4269,-13423,-5787,1648,796,-989,-4,-17,11
819,35,105,125,32,34,21,21,20,6045,-4272,-13423,-5786,1640,797,-989,-4,-17,14
842,29,83,92,32,33,20,22,15,6045,-4276,-13422,-5786,1647,803,-995,-7,-8,19
864,32,81,91,29,31,18,19,20,6048,-4280,-13420,-5784,1668,795,-996,-3,-2,22
879,29,73,80,29,30,16,20,21,6051,-4283,-13418,-5783,1658,816,-1009,2,14,30
902,26,77,83,31,31,18,18,22,6054,-4286,-13417,-5781,1673,814,-1011,2,7,20
924,24,75,82,31,29,24,25,24,6054,-4286,-13417,-5782,1680,817,-1003,4,3,8
939,27,71,94,29,30,24,24,26,6054,-4286,-13417,-5782,1674,818,-1024,11,2,5
962,35,65,93,35,34,23,25,24,6054,-4286,-13417,-5782,1674,813,-1017,0,-2,5
978,34,60,90,35,32,26,27,23,6054,-4286,-13417,-5781,1681,793,-1024,-3,-14,-9
999,34,63,86,32,32,26,27,24,6051,-4288,-13417,-5783,1711,786,-1041,-29,-14,-22
1022,35,56,92,32,33,20,21,22,6046,-4291,-13417,-5785,1759,776,-1072,-46,-25,-34
1038,33,55,78,39,37,22,22,21,6040,-4298,-13416,-5790,1809,781,-1095,-76,-32,-36
1059,22,51,64,40,40,27,21,21,6032,-4310,-13413,-5796,1808,782,-1074,-92,-56,-11
1082,22,59,67,41,41,26,19,21,6026,-4326,-13409,-5799,1779,784,-1093,-88,-40,22
1104,22,52,74,44,41,28,22,19,6025,-4345,-13401,-5804,1745,772,-1078,-107,-14,52
1119,31,76,78,43,45,33,23,20,6024,-4360,-13392,-5814,1723,794,-1041,-107,-1,43
1142,41,97,91,51,62,43,26,20,6025,-4363,-13385,-5827,1681,823,-997,-72,24,-1
1164,42,104,92,50,63,48,27,20,6040,-4357,-13374,-5842,1749,815,-1027,-64,118,-29
1179,51,113,93,64,76,61,37,27,6073,-4344,-13353,-5865,1753,811,-987,-72,232,-29
1202,53,114,89,69,80,61,36,28,6107,-4323,-13335,-5887,1702,802,-996,-51,269,-59
1224,56,107,90,73,78,61,34,31,6144,-4295,-13318,-5907,1663,779,-974,-25,296,-85
1241,51,94,78,65,68,55,33,30,6168,-4265,-13306,-5929,1624,765,-980,-43,251,-127
1262,50,85,75,64,64,49,33,28,6185,-4238,-13298,-5950,1601,767,-979,-58,214,-131
1284,42,66,72,52,54,35,23,21,6191,-4220,-13291,-5972,1592,786,-966,-78,141,-110
1307,39,68,72,46,64,42,24,26,6197,-4213,-13282,-5991,1613,794,-958,-99,115,-49
1322,27,54,55,42,65,39,27,23,6195,-4217,-13274,-6007,1640,818,-956,-110,39,-8
1344,29,59,72,55,74,40,26,24,6196,-4222,-13264,-6026,1675,851,-934,-114,43,6
1359,28,64,74,56,83,41,27,25,6200,-4228,-13251,-6045,1635,868,-889,-109,58,34
1382,27,69,89,60,80,39,25,25,6199,-4229,-13242,-6065,1612,898,-860,-83,31,11
1404,28,72,101,58,71,32,24,17,6196,-4220,-13234,-6092,1613,908,-840,-93,41,-49
1419,30,77,132,68,71,30,21,17,6191,-4208,-13226,-6123,1627,920,-814,-105,35,-79
1442,28,90,130,60,63,28,21,18,6187,-4193,-13219,-6151,1625,902,-803,-79,35,-96
1464,32,122,151,63,59,36,23,20,6188,-4176,-13214,-6174,1619,879,-791,-51,48,-96
1479,36,122,148,61,62,38,25,22,6195,-4156,-13208,-6193,1604,894,-845,-29,107,-85
1502,36,121,146,70,63,38,25,22,6200,-4136,-13204,-6209,1570,891,-823,-16,90,-77
1524,34,145,122,62,63,38,24,23,6201,-4120,-13203,-6222,1552,870,-809,-7,50,-72
1541,36,138,117,65,63,38,25,24,6198,-4111,-13204,-6229,1551,857,-830,-5,18,-50
1562,32,118,104,62,57,31,21,25,6198,-4110,-13204,-6229,1571,863,-807,-5,-15,-10
1584,41,124,99,60,60,28,19,24,6199,-4114,-13201,-6231,1582,875,-810,-5,-12,39
1601,41,126,99,50,58,29,25,25,6198,-4122,-13200,-6228,1596,890,-806,14,-40,62
1622,42,101,107,48,55,29,26,24,6197,-4129,-13201,-6222,1586,907,-825,34,-37,73
1644,42,95,107,41,46,28,26,23,6194,-4138,-13205,-6212,1602,910,-837,51,-65,78
1661,42,88,107,40,41,28,26,20,6186,-4144,-13212,-6201,1616,914,-863,54,-77,56
1682,34,105,131,40,30,25,26,18,6176,-4151,-13219,-6191,1621,918,-854,53,-103,51
1705,36,112,126,39,34,24,24,18,6155,-4160,-13234,-6175,1617,903,-890,66,-163,33
1721,34,114,147,37,33,25,23,20,6129,-4165,-13251,-6160,1631,894,-894,66,-184,-9
1742,45,143,154,37,34,26,22,20,6103,-4168,-13267,-6149,1630,891,-917,43,-172,-26
1764,48,146,151,35,36,30,22,23,6076,-4173,-13284,-6137,1659,865,-909,45,-190,-38
1787,48,127,132,36,36,32,29,29,6053,-4177,-13300,-6122,1662,853,-943,53,-170,-33
1802,49,122,128,37,31,31,28,30,6033,-4183,-13314,-6106,1620,841,-928,55,-156,-10
1826,58,121,94,36,30,31,29,29,6018,-4192,-13328,-6084,1588,817,-933,81,-142,25
1841,51,102,83,33,30,30,30,30,6005,-4204,-13343,-6058,1580,792,-961,89,-133,45
1862,49,99,69,29,25,24,32,29,5996,-4218,-13354,-6031,1609,791,-964,83,-126,62
1892,50,119,64,30,24,22,25,24,5988,-4238,-13365,-6002,1627,787,-983,84,-132,93
1901,50,124,100,28,44,24,25,25,5983,-4259,-13376,-5968,1650,793,-1006,109,-128,111
1922,41,119,105,27,57,23,24,27,5982,-4278,-13385,-5935,1676,811,-1035,110,-98,123
1944,39,104,107,27,67,25,23,24,5982,-4292,-13393,-5905,1714,802,-1038,107,-88,86
1961,42,107,125,29,77,25,20,24,5983,-4297,-13404,-5876,1726,835,-1019,140,-81,52
1982,38,83,141,28,91,26,21,24,5992,-4288,-13416,-5846,1721,861,-1064,193,-3,20
2005,34,100,126,26,94,24,20,22,6009,-4277,-13426,-5813,1704,842,-1000,221,13,31
2021,33,111,124,26,90,23,22,20,6027,-4257,-13435,-5789,1714,826,-993,202,44,-25
2042,31,109,118,25,84,20,23,22,6045,-4239,-13439,-5772,1744,817,-1043,140,77,-35
2066,27,107,126,25,80,20,24,23,6062,-4228,-13440,-5762,1708,793,-1037,87,82,-18
2095,38,110,127,26,68,23,25,26,6078,-4222,-13439,-5751,1676,772,-1080,60,97,8
2102,37,80,121,26,66,22,23,25,6091,-4223,-13439,-5738,1678,763,-1068,50,64,36
2125,37,64,116,25,68,22,27,24,6097,-4225,-13439,-5728,1692,778,-1061,33,26,24
2147,39,100,123,29,68,23,26,24,6096,-4231,-13442,-5719,1683,785,-1058,20,-24,28
2162,38,104,104,29,65,23,25,23,6089,-4243,-13444,-5712,1654,790,-1038,-7,-55,55
2185,27,98,85,26,60,21,23,19,6082,-4259,-13444,-5707,1680,776,-1024,-32,-70,57
2207,42,105,87,28,47,24,22,20,6074,-4271,-13445,-5706,1680,782,-989,-30,-81,32
2222,46,114,88,30,40,27,21,21,6069,-4277,-13447,-5701,1674,793,-1001,11,-57,18
2252,48,84,82,31,39,27,19,21,6066,-4282,-13449,-5697,1672,784,-999,12,-43,17
2267,47,73,68,31,34,28,20,20,6069,-4287,-13448,-5691,1691,780,-980,20,-32,29
2282,50,90,67,30,34,29,21,24,6073,-4292,-13447,-5686,1679,767,-988,20,-14,31
2306,43,110,72,31,31,28,24,25,6075,-4294,-13447,-5681,1662,791,-1016,22,-5,27
13,Repeat 4,,,,,,,,,,,,,,,,,
28,35,107,83,26,23,24,21,28,6086,-4293,-13447,-5671,1682,792,-1022,23,19,14
58,37,114,87,25,24,22,23,28,6088,-4293,-13445,-5673,1686,811,-1042,-11,23,7
73,36,105,81,26,25,25,24,28,6089,-4293,-13445,-5673,1693,788,-1029,-6,5,10
88,30,80,81,27,23,24,25,27,6089,-4298,-13443,-5673,1703,775,-1037,-20,-4,15
111,32,75,88,31,22,25,28,27,6088,-4308,-13439,-5677,1700,777,-1056,-61,-5,32
133,31,84,87,29,25,28,28,23,6087,-4319,-13434,-5681,1698,782,-1062,-59,0,37
148,50,96,95,31,25,29,28,26,6085,-4325,-13432,-5682,1659,781,-1043,-30,-4,29
171,50,101,102,36,29,25,27,25,6083,-4326,-13435,-5677,1623,776,-1043,17,-3,10
193,50,100,109,37,30,26,27,27,6077,-4327,-13438,-5677,1626,777,-1040,-15,-17,-8
208,50,102,104,38,29,26,23,27,6069,-4328,-13439,-5681,1633,782,-1015,-30,-31,-17
231,51,107,100,40,28,26,23,28,6061,-4332,-13440,-5686,1642,770,-1014,-41,-36,-7
253,32,92,95,38,31,28,23,25,6057,-4339,-13438,-5689,1653,757,-1012,-45,-26,6
268,31,87,120,43,27,29,23,28,6057,-4345,-13435,-5691,1661,762,-998,-32,-12,22
307,30,95,125,48,26,30,22,24,6057,-4348,-13432,-5695,1666,780,-1010,-23,1,4
313,29,102,124,46,26,32,26,25,6057,-4347,-13432,-5695,1661,802,-998,-8,0,10
328,35,98,126,46,27,31,25,25,6057,-4347,-13432,-5696,1658,800,-1011,-7,0,12
351,34,96,124,48,29,30,26,24,6057,-4347,-13432,-5696,1649,799,-1019,-3,13,14
374,30,95,104,42,31,31,26,19,6057,-4347,-13432,-5696,1630,791,-1011,-11,4,8
388,37,91,84,34,38,31,27,24,6057,-4346,-13432,-5696,1633,795,-993,1,9,13
412,36,81,86,34,40,26,24,24,6057,-4346,-13432,-5697,1668,792,-1003,-2,10,7
434,31,76,81,33,39,25,24,22,6057,-4346,-13432,-5697,1672,784,-1004,-3,4,5
448,32,86,87,36,38,24,23,22,6058,-4346,-13432,-5697,1669,790,-1001,-6,1,5
471,32,87,88,37,36,21,23,22,6062,-4348,-13428,-5699,1678,774,-1012,-15,19,11
494,26,99,94,36,32,20,21,15,6068,-4351,-13423,-5702,1690,794,-1021,-21,33,25
509,34,109,92,37,31,23,22,20,6076,-4354,-13418,-5704,1682,781,-1006,-9,33,26
531,35,106,102,44,36,27,24,20,6080,-4356,-13416,-5702,1667,783,-1016,7,17,24
554,34,100,109,41,35,27,24,21,6080,-4356,-13417,-5702,1656,785,-1026,-5,9,13
569,39,98,102,40,36,28,26,21,6079,-4357,-13415,-5705,1656,796,-1012,-17,3,6
591,38,81,110,46,34,26,26,22,6079,-4357,-13415,-5705,1671,791,-1011,-15,-8,-10
614,31,65,117,49,34,25,26,22,6077,-4358,-13415,-5706,1654,763,-1014,-18,-9,-5
629,28,78,119,43,28,22,23,22,6075,-4360,-13414,-5709,1664,771,-1003,-20,-10,-5
651,32,101,124,42,26,22,23,22,6078,-4362,-13411,-5712,1678,776,-996,-22,7,4
682,31,101,127,42,24,20,20,23,6078,-4362,-13411,-5712,1678,775,-1009,-10,11,10
696,33,107,121,40,24,22,21,26,6078,-4362,-13411,-5712,1669,778,-996,0,7,7
711,34,123,119,36,25,21,19,26,6081,-4362,-13409,-5713,1665,777,-1013,-6,19,3
734,42,139,114,34,31,21,21,25,6081,-4362,-13409,-5713,1661,776,-993,-6,13,4
756,40,125,104,38,32,19,24,26,6082,-4362,-13409,-5713,1677,782,-1000,1,-9,1
772,37,131,119,42,32,22,28,24,6080,-4367,-13408,-5713,1683,768,-1009,-17,-19,9
794,38,141,123,41,33,25,28,23,6079,-4373,-13406,-5715,1700,782,-1009,-28,-22,18
816,39,130,119,43,32,30,29,19,6078,-4379,-13404,-5717,1689,789,-1007,-22,-16,25
831,31,107,115,44,26,30,27,21,6079,-4384,-13400,-5720,1694,790,-1011,-30,-3,17
853,30,105,113,43,29,32,27,22,6080,-4389,-13396,-5725,1694,781,-1010,-38,6,18
876,30,95,91,35,31,31,22,26,6079,-4394,-13393,-5728,1669,770,-1008,-38,-8,13
891,31,88,79,35,32,30,19,26,6077,-4400,-13391,-5731,1666,781,-1000,-29,-14,23
914,29,83,75,32,31,25,22,25,6076,-4404,-13392,-5727,1672,773,-1014,8,-21,16
936,28,74,86,34,33,26,24,27,6072,-4410,-13393,-5725,1688,769,-1026,-14,-36,11
958,27,73,101,37,33,23,22,25,6067,-4416,-13392,-5728,1698,779,-1025,-40,-25,7
974,31,76,101,41,30,25,27,27,6067,-4421,-13388,-5731,1701,772,-1015,-37,-8,9
996,26,60,97,40,29,27,28,27,6071,-4427,-13383,-5736,1723,782,-1009,-38,9,27
1011,25,57,96,47,32,28,26,28,6076,-4433,-13376,-5742,1722,757,-995,-52,18,11
1034,25,56,84,60,41,30,27,26,6082,-4441,-13368,-5749,1731,751,-1033,-68,32,20
1056,26,66,62,69,50,45,48,36,6103,-4458,-13349,-5757,1782,732,-1013,-91,93,94
1071,29,81,57,102,116,63,46,36,6150,-4477,-13321,-5757,1851,772,-1042,-34,214,188
1094,34,75,60,137,140,71,46,37,6220,-4493,-13283,-5756,1858,747,-1014,-6,339,234
1116,41,91,82,167,238,101,68,48,6296,-4506,-13246,-5749,1747,704,-1019,24,402,248
1131,54,108,116,239,382,169,96,62,6392,-4522,-13200,-5737,1730,691,-1008,55,513,342
1154,55,105,117,284,447,176,89,57,6459,-4540,-13167,-5724,1667,745,-997,51,361,311
1176,61,94,123,291,460,181,95,61,6499,-4545,-13146,-5723,1724,770,-979,19,240,168
1191,70,105,154,288,460,220,116,75,6510,-4537,-13135,-5740,1757,793,-1017,-59,159,-3
1213,75,106,165,277,466,242,121,81,6514,-4527,-13122,-5775,1767,767,-941,-154,126,-78
1236,69,109,147,216,379,208,103,75,6504,-4510,-13116,-5812,1766,755,-943,-153,70,-166
1251,69,106,143,152,304,204,103,75,6486,-4486,-13119,-5845,1751,737,-917,-125,12,-228
1273,63,104,138,120,266,196,99,71,6457,-4460,-13130,-5872,1731,725,-943,-97,-44,-260
1296,54,97,104,102,265,150,76,58,6425,-4439,-13141,-5897,1740,731,-931,-110,-85,-250
1311,42,85,81,116,186,97,53,38,6406,-4421,-13143,-5927,1768,724,-904,-125,-17,-220
1333,39,60,85,128,148,88,52,33,6393,-4405,-13143,-5954,1741,740,-926,-122,19,-179
1356,38,62,85,128,149,89,50,35,6385,-4390,-13141,-5978,1734,741,-913,-108,37,-158
1371,34,67,96,127,145,86,47,34,6374,-4374,-13141,-6001,1686,747,-934,-102,37,-162
1393,27,69,95,125,130,91,48,32,6360,-4360,-13141,-6025,1649,770,-911,-110,25,-142
1416,31,83,92,110,111,80,42,37,6350,-4351,-13137,-6053,1657,773,-867,-132,24,-123
1438,42,93,86,108,138,95,47,44,6339,-4343,-13133,-6078,1630,765,-853,-124,12,-112
1453,43,92,93,112,126,86,48,45,6332,-4339,-13126,-6103,1636,807,-849,-124,30,-64
1476,49,109,108,142,154,92,51,46,6327,-4335,-13119,-6125,1620,823,-802,-95,18,-49
1491,50,116,108,142,160,85,48,50,6330,-4329,-13111,-6144,1621,818,-810,-71,58,-37
1513,47,109,106,158,152,87,48,49,6333,-4323,-13104,-6161,1607,830,-801,-60,58,-29
1536,38,99,103,156,132,66,40,41,6333,-4313,-13097,-6180,1631,847,-801,-58,49,-49
1551,37,101,116,158,145,73,42,43,6336,-4299,-13092,-6200,1621,868,-769,-39,59,-63
1573,33,78,122,136,135,86,43,46,6343,-4284,-13086,-6215,1632,854,-779,-17,75,-56
1597,33,65,122,129,127,86,41,48,6354,-4273,-13078,-6227,1646,877,-778,-5,85,-12
1619,33,66,131,104,143,89,42,53,6357,-4263,-13078,-6231,1611,891,-769,36,22,-2
1633,34,76,134,104,137,91,41,58,6355,-4258,-13080,-6233,1618,897,-805,26,-4,8
1656,35,74,120,109,128,89,39,57,6349,-4258,-13081,-6237,1628,903,-785,9,-35,17
1679,42,88,107,110,112,70,32,54,6347,-4260,-13081,-6238,1674,880,-786,11,-40,22
1694,43,93,114,113,114,70,34,50,6346,-4259,-13082,-6238,1670,891,-791,21,-26,21
1716,42,95,100,124,88,58,30,44,6342,-4260,-13085,-6234,1642,864,-808,33,-43,20
1738,44,93,97,111,80,51,30,38,6337,-4264,-13090,-6226,1628,853,-814,40,-57,37
1754,44,118,100,99,78,42,28,31,6331,-4272,-13095,-6216,1637,837,-808,42,-79,50
1776,38,127,98,89,72,44,29,31,6330,-4282,-13098,-6204,1639,831,-816,45,-56,69
1799,37,126,93,89,74,40,30,36,6328,-4294,-13101,-6191,1648,831,-836,42,-63,83
1814,38,122,95,65,76,42,35,33,6327,-4304,-13106,-6175,1652,832,-854,61,-56,80
1836,35,123,103,62,71,39,36,31,6321,-4314,-13113,-6159,1645,832,-876,54,-77,69
1859,37,100,113,56,60,35,35,32,6300,-4325,-13129,-6139,1643,830,-907,64,-160,40
1874,32,79,108,53,54,29,34,35,6257,-4336,-13156,-6117,1619,846,-918,65,-278,-12
1896,30,76,102,39,39,27,31,32,6199,-4346,-13188,-6100,1593,839,-898,44,-359,-60
1919,35,82,101,37,30,23,29,41,6143,-4356,-13219,-6083,1602,822,-897,40,-359,-74
1934,36,83,94,38,32,32,34,42,6092,-4369,-13245,-6068,1584,843,-915,27,-324,-36
1956,35,84,80,39,33,33,34,42,6050,-4387,-13266,-6052,1597,824,-897,20,-300,8
1979,38,82,77,35,34,33,35,40,6020,-4406,-13280,-6036,1592,792,-897,20,-243,30
1994,38,81,81,35,34,31,35,41,6002,-4421,-13289,-6024,1610,794,-883,23,-176,38
2016,33,81,88,32,31,32,33,34,5999,-4434,-13292,-6012,1672,777,-909,27,-91,43
2039,47,87,93,29,27,23,23,33,6010,-4443,-13287,-6004,1713,805,-941,27,2,67
2054,49,111,93,32,29,23,21,34,6033,-4449,-13279,-5994,1756,796,-971,41,73,78
2076,48,117,89,35,29,23,21,35,6064,-4453,-13270,-5980,1778,769,-1011,60,127,78
2099,50,123,107,40,30,25,25,40,6098,-4454,-13263,-5960,1779,754,-1047,96,147,81
2114,53,118,101,40,31,24,29,43,6128,-4454,-13259,-5937,1775,774,-1077,106,137,83
2136,41,110,98,40,30,28,31,42,6146,-4461,-13258,-5916,1788,802,-1099,81,70,94
2159,39,88,99,39,27,26,31,42,6151,-4478,-13261,-5892,1757,790,-1070,63,-22,116
2174,39,84,130,36,29,25,31,44,6151,-4500,-13266,-5862,1723,757,-1048,73,-80,137
2196,38,80,141,32,28,26,30,43,6152,-4526,-13268,-5838,1688,755,-1015,46,-68,159
2219,41,78,141,31,31,26,28,41,6156,-4552,-13265,-5821,1761,742,-975,17,-71,140
2234,42,81,145,36,33,21,27,46,6164,-4568,-13262,-5807,1783,742,-976,32,-35,93
2256,40,82,183,36,33,23,34,48,6177,-4577,-13257,-5796,1786,722,-968,31,4,64
2279,40,74,164,41,35,26,36,47,6194,-4582,-13251,-5788,1759,717,-979,30,55,56
2294,41,65,142,41,35,25,34,41,6214,-4585,-13244,-5780,1777,703,-980,32,70,43
2316,40,74,145,47,32,25,36,45,6233,-4588,-13239,-5770,1766,703,-1000,45,68,45
2339,40,74,156,45,31,28,42,46,6250,-4589,-13235,-5758,1745,720,-1033,53,84,50
2354,38,70,106,41,34,27,36,43,6259,-4592,-13234,-5749,1747,715,-1041,23,42,32
2376,44,89,104,38,30,25,35,53,6260,-4597,-13234,-5743,1735,727,-1020,6,0,28
2399,45,91,115,46,36,28,39,61,6256,-4604,-13235,-5740,1743,742,-992,-10,-39,26
2414,40,92,113,44,36,31,37,61,6251,-4613,-13234,-5740,1729,732,-987,-29,-37,27
2436,38,88,93,41,36,29,30,62,6252,-4620,-13232,-5740,1747,726,-959,-22,-22,27
2459,41,91,89,44,35,28,31,64,6253,-4621,-13231,-5740,1751,727,-943,-10,3,9
2474,36,99,106,46,32,27,30,56,6259,-4621,-13226,-5744,1740,730,-947,-13,26,3
12,Repeat 5,,,,,,,,,,,,,,,,,
34,30,95,120,38,31,22,27,45,6267,-4617,-13221,-5750,1710,738,-977,-15,28,-5
49,28,95,121,43,32,23,24,39,6268,-4614,-13219,-5756,1695,755,-953,-14,17,-11
72,32,97,124,41,31,23,26,35,6268,-4613,-13219,-5756,1704,750,-952,0,3,-9
94,32,74,111,39,35,23,29,37,6267,-4613,-13219,-5757,1703,760,-961,6,3,-14
117,32,61,101,33,34,23,25,42,6266,-4609,-13219,-5761,1705,756,-962,-11,7,-23
132,37,78,80,31,31,22,25,38,6264,-4605,-13220,-5765,1714,731,-964,-12,5,-37
154,49,91,73,27,29,21,25,40,6264,-4599,-13222,-5766,1712,728,-972,9,8,-35
177,47,93,87,33,37,29,25,53,6263,-4596,-13223,-5767,1707,738,-972,0,0,-22
192,48,96,84,32,34,28,20,51,6259,-4597,-13224,-5768,1703,750,-963,-9,-17,-6
214,47,99,81,33,34,31,20,45,6254,-4597,-13226,-5770,1697,754,-946,-6,-30,-10
237,50,115,99,38,35,31,25,45,6248,-4598,-13227,-5772,1692,749,-953,-15,-37,-7
252,39,107,100,41,39,36,33,45,6247,-4598,-13227,-5772,1694,766,-954,-6,-9,-3
274,37,110,102,37,32,31,32,32,6248,-4598,-13227,-5773,1716,754,-942,-12,-13,-10
297,34,110,107,41,32,32,35,30,6247,-4593,-13228,-5775,1696,756,-939,5,-2,-20
312,37,112,114,40,32,31,35,29,6247,-4593,-13227,-5776,1694,736,-946,8,-6,-11
334,30,84,101,40,31,32,37,40,6248,-4593,-13227,-5776,1692,733,-942,4,-4,-6
357,32,80,102,41,25,25,32,37,6248,-4594,-13227,-5776,1699,736,-957,6,-2,3
372,30,67,90,46,28,24,30,38,6249,-4597,-13226,-5774,1701,723,-961,-3,-8,16
394,38,86,97,44,27,27,33,43,6250,-4602,-13225,-5773,1703,735,-959,-9,-6,25
417,37,93,87,47,32,26,36,45,6252,-4606,-13223,-5771,1695,738,-969,-2,12,28
432,35,94,88,46,33,24,34,44,6257,-4608,-13219,-5772,1716,742,-961,-8,22,25
454,35,97,89,43,33,24,32,47,6257,-4608,-13219,-5772,1727,748,-973,1,13,5
477,37,98,100,39,34,25,33,48,6257,-4608,-13219,-5772,1721,766,-993,1,11,4
492,36,79,108,39,39,23,31,49,6257,-4608,-13220,-5772,1710,760,-981,-15,-8,7
514,37,66,110,34,36,23,30,49,6256,-4608,-13220,-5772,1701,756,-987,-3,-13,-2
537,36,64,104,34,37,25,29,42,6249,-4609,-13223,-5771,1713,731,-984,-10,-40,-19
552,38,56,100,32,39,26,33,46,6240,-4610,-13227,-5771,1703,741,-976,-10,-45,-23
574,37,56,109,36,37,25,38,48,6233,-4612,-13229,-5772,1710,732,-953,-14,-48,-10
597,36,55,104,45,32,24,42,42,6229,-4616,-13230,-5771,1697,723,-960,-11,-32,-1
612,35,52,132,47,30,23,41,48,6229,-4616,-13230,-5771,1694,740,-979,-6,8,4
634,36,53,135,46,31,21,41,50,6229,-4616,-13230,-5771,1687,742,-959,-5,6,12
657,34,60,142,46,31,23,46,52,6229,-4615,-13230,-5771,1674,748,-952,3,1,-7
672,35,77,150,42,34,26,46,48,6229,-4615,-13230,-5771,1672,746,-963,7,5,-10
694,27,74,144,37,35,27,42,51,6229,-4615,-13231,-5771,1693,738,-967,-1,-10,-6
717,27,83,125,40,34,27,44,45,6225,-4618,-13231,-5773,1698,745,-961,-14,-21,3
732,25,85,134,40,33,26,42,49,6224,-4622,-13230,-5772,1699,739,-949,-5,-22,18
754,40,101,139,44,34,26,36,42,6223,-4628,-13229,-5770,1690,738,-944,-5,-28,28
777,43,88,116,45,36,28,33,45,6225,-4631,-13228,-5769,1689,749,-944,11,-8,28
792,44,89,110,42,36,27,35,47,6225,-4630,-13228,-5769,1708,752,-945,0,-3,13
814,44,80,101,37,36,27,35,60,6225,-4630,-13228,-5770,1711,765,-954,11,3,7
837,46,103,109,35,36,27,39,60,6225,-4630,-13228,-5770,1697,753,-958,12,-3,15
852,34,98,101,32,35,27,41,61,6226,-4633,-13227,-5767,1695,743,-957,10,-10,24
874,27,100,103,32,34,28,39,60,6226,-4636,-13228,-5764,1710,752,-972,10,-16,25
905,26,98,104,29,35,34,35,67,6228,-4638,-13228,-5761,1704,746,-972,17,0,21
912,25,111,109,35,37,36,35,63,6229,-4641,-13227,-5757,1727,738,-986,7,-5,23
934,33,101,89,38,40,36,32,61,6234,-4645,-13226,-5753,1722,728,-984,14,9,30
957,31,92,80,38,40,36,27,59,6238,-4649,-13224,-5750,1708,730,-974,6,11,35
972,31,89,77,39,36,30,27,62,6239,-4653,-13223,-5748,1700,735,-976,-3,-2,26
994,34,90,78,46,34,23,28,55,6239,-4653,-13223,-5748,1710,732,-986,-3,-9,13
1017,37,82,86,42,34,19,26,44,6239,-4653,-13223,-5748,1707,732,-997,-7,-15,13
1039,26,70,94,43,34,20,29,41,6239,-4657,-13222,-5747,1717,731,-988,-13,-2,16
1062,27,65,98,45,38,24,31,39,6237,-4660,-13221,-5748,1715,719,-965,-16,-17,5
1077,27,67,95,44,39,28,36,33,6234,-4663,-13221,-5749,1712,727,-966,-16,-26,-1
1099,29,71,98,41,39,28,36,27,6230,-4668,-13221,-5749,1717,730,-972,-17,-32,11
1114,27,70,98,45,38,29,38,30,6227,-4673,-13221,-5748,1712,725,-984,-17,-24,15
1145,31,72,85,49,40,29,37,44,6226,-4679,-13221,-5745,1726,721,-974,-5,-24,21
1160,33,70,81,49,35,26,37,45,6229,-4684,-13219,-5743,1730,717,-984,0,4,28
1174,34,68,80,49,40,25,32,44,6233,-4688,-13216,-5740,1721,720,-994,-3,14,32
1197,30,67,78,58,44,27,31,46,6239,-4695,-13212,-5739,1747,725,-1004,-15,24,41
1219,31,62,68,61,52,32,28,53,6249,-4703,-13203,-5742,1794,709,-1006,-39,48,40
1234,29,51,73,59,84,44,30,44,6265,-4712,-13192,-5743,1809,706,-997,-35,65,64
1257,27,64,77,63,99,57,29,46,6286,-4724,-13178,-5741,1822,699,-1007,-21,92,94
1279,29,65,76,102,119,57,31,48,6314,-4734,-13163,-5738,1819,686,-992,-6,121,100
1295,30,63,71,130,156,63,34,49,6354,-4747,-13141,-5734,1843,692,-1013,-2,192,151
1317,36,85,73,152,174,83,47,47,6411,-4759,-13111,-5727,1840,691,-945,36,263,207
1339,43,90,76,163,164,100,50,45,6469,-4754,-13091,-5712,1782,700,-1003,125,310,158
1354,47,83,74,171,173,106,56,45,6518,-4735,-13073,-5713,1752,693,-983,71,325,42
1377,52,83,82,172,232,122,58,53,6541,-4717,-13063,-5725,1717,705,-978,-2,218,-35
1400,54,92,87,195,253,130,65,55,6557,-4704,-13054,-5739,1777,676,-932,-33,146,-51
1414,49,105,80,187,247,120,55,51,6571,-4691,-13044,-5755,1807,667,-927,-48,134,-72
1437,45,105,79,181,247,106,50,52,6578,-4675,-13038,-5775,1770,675,-912,-62,112,-102
1468,39,107,78,173,239,94,47,58,6579,-4654,-13034,-5799,1747,687,-911,-74,102,-140
1475,37,114,70,165,191,85,44,50,6567,-4638,-13034,-5825,1720,685,-906,-102,31,-162
1497,33,115,64,112,133,68,36,51,6553,-4621,-13035,-5852,1709,680,-900,-116,25,-171
1519,32,86,68,100,124,62,39,53,6539,-4606,-13034,-5881,1714,695,-885,-128,25,-166
1535,35,83,61,103,128,62,46,55,6530,-4592,-13032,-5907,1708,698,-885,-111,48,-145
1557,42,84,66,119,131,62,47,49,6526,-4581,-13028,-5929,1713,702,-877,-93,49,-106
1580,38,72,66,128,123,45,45,50,6527,-4575,-13021,-5947,1716,729,-854,-81,60,-53
1595,38,68,80,130,122,44,41,44,6528,-4569,-13014,-5967,1694,753,-859,-82,66,-47
1617,39,78,80,131,132,47,41,47,6525,-4561,-13007,-5990,1697,773,-852,-96,61,-61
1641,39,85,77,127,124,44,38,44,6514,-4555,-13004,-6014,1681,792,-830,-98,2,-70
1655,34,80,74,119,136,63,41,50,6504,-4547,-13002,-6036,1687,785,-784,-82,-14,-81
1677,33,86,90,97,113,62,43,48,6504,-4539,-12995,-6056,1686,778,-797,-69,49,-47
1700,34,91,87,96,119,70,46,47,6511,-4530,-12988,-6071,1673,793,-787,-30,71,-26
1715,47,96,93,100,117,71,47,41,6518,-4518,-12982,-6084,1659,794,-786,-13,78,-29
1737,46,94,105,103,129,78,54,39,6523,-4506,-12978,-6096,1633,795,-774,-8,63,-34
1760,44,96,109,100,113,66,54,33,6521,-4499,-12978,-6105,1640,790,-782,-12,14,-26
1775,43,95,96,96,113,69,54,36,6521,-4498,-12977,-6106,1642,795,-762,-7,10,-14
1797,43,86,89,98,108,63,55,35,6526,-4493,-12974,-6113,1642,786,-767,1,39,4
1820,35,85,86,104,109,65,56,37,6538,-4487,-12967,-6118,1643,802,-745,22,63,30
1835,32,83,79,99,100,54,44,38,6546,-4482,-12964,-6119,1656,824,-786,33,52,40
1857,34,105,87,94,93,51,38,36,6551,-4479,-12964,-6117,1668,823,-771,44,10,36
1880,39,119,96,93,96,48,34,42,6546,-4478,-12969,-6111,1657,828,-802,53,-37,35
1895,39,119,98,82,85,47,30,49,6539,-4480,-12976,-6103,1664,825,-793,56,-72,40
1917,31,107,97,60,62,41,21,46,6513,-4486,-12994,-6088,1643,830,-820,65,-181,25
1940,31,122,97,55,48,34,19,46,6466,-4498,-13023,-6068,1599,821,-832,67,-314,1
1955,29,111,100,52,47,34,19,49,6401,-4511,-13060,-6047,1585,804,-816,61,-427,-45
1977,31,99,93,40,33,34,22,46,6335,-4522,-13095,-6032,1613,764,-789,32,-443,-97
2000,36,101,89,42,35,31,23,41,6290,-4530,-13120,-6018,1708,760,-823,38,-334,-76
2022,39,111,94,35,35,27,25,47,6259,-4541,-13140,-5999,1740,749,-865,58,-270,-28
2037,39,95,91,30,35,28,30,46,6241,-4552,-13155,-5977,1745,759,-906,78,-187,15
2060,41,91,76,25,33,24,31,42,6232,-4562,-13166,-5955,1737,734,-956,70,-119,31
2082,35,92,81,32,33,21,31,39,6232,-4572,-13172,-5933,1733,735,-960,76,-63,58
2097,29,93,83,31,37,23,31,46,6238,-4584,-13177,-5908,1771,721,-997,79,-40,76
2120,28,90,84,33,38,24,32,41,6243,-4599,-13180,-5884,1793,739,-1012,72,-45,100
2142,29,94,89,41,37,27,27,47,6245,-4617,-13183,-5860,1776,753,-1021,67,-59,113
2157,27,91,85,48,37,29,25,59,6249,-4637,-13186,-5835,1782,728,-1035,59,-52,123
2179,26,85,84,44,35,29,22,57,6249,-4656,-13189,-5811,1780,725,-1037,52,-61,112
2202,27,85,100,42,30,27,19,51,6251,-4672,-13192,-5789,1761,708,-1017,56,-55,95
2217,31,94,104,42,31,29,27,61,6254,-4687,-13194,-5770,1762,704,-1014,47,-39,87
2239,33,89,107,34,35,26,29,63,6260,-4700,-13192,-5758,1758,697,-980,22,-23,76
2262,39,106,119,29,36,23,31,57,6269,-4709,-13188,-5750,1804,684,-976,12,1,48
2277,39,108,118,28,36,25,31,64,6283,-4710,-13183,-5744,1817,689,-991,27,47,19
2299,39,111,119,27,35,23,39,69,6296,-4706,-13181,-5737,1775,683,-1006,35,64,-1
2322,36,107,118,28,33,20,33,61,6309,-4699,-13180,-5732,1745,669,-1025,29,89,-18
2337,33,103,109,26,29,19,31,54,6321,-4694,-13178,-5728,1724,655,-1007,22,79,-15
2359,31,89,108,25,25,20,31,48,6328,-4692,-13177,-5724,1724,661,-1015,7,54,-12
2382,31,87,104,29,25,20,31,39,6331,-4692,-13177,-5721,1717,683,-988,6,26,1
2397,32,80,96,32,27,22,22,39,6332,-4697,-13176,-5717,1726,690,-971,1,-9,24
2419,30,69,91,33,29,24,25,38,6334,-4702,-13174,-5715,1747,715,-958,-3,-5,32
2442,33,70,97,34,33,25,30,38,6343,-4705,-13169,-5716,1786,730,-958,1,27,34
2457,26,62,86,32,36,27,30,45,6354,-4700,-13164,-5719,1801,723,-949,10,51,-6
2479,29,56,87,29,36,26,30,50,6361,-4693,-13161,-5723,1772,736,-961,7,56,-18
2502,27,71,95,27,34,23,32,44,6366,-4687,-13158,-5729,1770,729,-959,-9,42,-28
2517,28,70,102,27,33,23,31,41,6367,-4684,-13157,-5735,1740,736,-959,-18,21,-16
7,Repeat 6,,,,,,,,,,,,,,,,,
29,28,76,109,32,29,22,29,44,6355,-4681,-13156,-5750,1717,745,-949,-33,-16,-22
44,27,91,113,32,25,21,37,53,6349,-4678,-13156,-5759,1723,751,-935,-31,-16,-29
67,28,83,101,35,25,22,36,53,6342,-4675,-13158,-5765,1725,734,-930,-26,-27,-40
89,29,86,88,35,25,23,36,59,6337,-4673,-13159,-5772,1726,724,-916,-23,-24,-37
104,28,88,86,34,26,22,38,58,6333,-4671,-13160,-5775,1716,715,-928,-15,-19,-29
127,30,87,87,45,27,20,36,54,6330,-4668,-13160,-5778,1725,716,-921,-9,-18,-30
149,28,75,90,47,28,22,30,42,6327,-4666,-13163,-5777,1703,713,-948,6,-16,-23
164,29,74,100,46,29,20,32,46,6327,-4666,-13164,-5777,1698,727,-953,10,-5,-13
187,28,102,100,48,31,22,34,38,6326,-4666,-13164,-5777,1692,724,-949,11,-6,-6
209,29,102,93,49,30,26,45,41,6323,-4665,-13166,-5776,1722,728,-953,8,-20,-13
224,28,102,90,36,29,26,44,40,6318,-4664,-13169,-5775,1713,732,-952,4,-29,-11
247,30,102,99,35,28,25,43,40,6310,-4666,-13173,-5773,1690,736,-948,5,-44,0
269,31,103,86,34,36,27,40,39,6306,-4668,-13176,-5771,1684,724,-920,11,-39,6
292,30,80,89,35,35,26,41,41,6306,-4671,-13176,-5767,1704,703,-934,8,-20,11
307,28,93,105,38,35,22,32,37,6311,-4671,-13174,-5765,1724,717,-968,8,27,12
329,26,103,100,38,33,27,33,40,6318,-4671,-13171,-5764,1725,712,-951,9,31,18
344,23,102,86,38,36,27,33,41,6323,-4670,-13170,-5762,1718,714,-964,10,26,4
367,21,95,88,35,30,28,32,36,6322,-4670,-13171,-5762,1711,730,-982,0,15,-10
389,20,93,102,35,28,30,28,35,6322,-4670,-13171,-5762,1718,724,-991,-9,-3,-4
412,19,84,99,28,34,32,22,36,6319,-4673,-13172,-5761,1712,717,-962,-7,-17,5
427,21,71,97,28,34,29,28,30,6316,-4676,-13173,-5759,1731,723,-966,-2,-20,8
449,23,68,96,26,32,31,29,39,6314,-4678,-13174,-5758,1713,725,-951,-3,-18,4
472,28,99,100,28,33,29,30,45,6312,-4680,-13174,-5759,1724,720,-946,-11,-17,3
487,31,95,86,24,33,27,33,45,6312,-4680,-13173,-5759,1726,713,-940,-4,-14,-2
509,32,95,73,24,28,25,32,46,6312,-4680,-13173,-5759,1723,710,-966,1,-4,-2
532,34,98,86,25,31,25,27,47,6313,-4680,-13173,-5759,1718,719,-950,-5,3,-8
547,32,106,97,34,32,24,27,38,6310,-4677,-13175,-5762,1700,730,-974,-12,7,-22
569,28,82,88,34,31,24,29,29,6308,-4673,-13175,-5764,1719,721,-949,-4,1,-28
592,27,81,87,34,32,24,26,30,6307,-4670,-13176,-5767,1725,727,-956,-5,-1,-24
607,28,72,88,37,33,23,27,28,6307,-4670,-13176,-5767,1706,720,-958,-10,-12,-15
629,30,71,78,37,36,25,27,32,6303,-4672,-13177,-5768,1704,718,-965,-20,-14,-5
652,30,78,66,31,34,23,27,36,6298,-4674,-13177,-5771,1700,729,-951,-21,-19,-2
675,32,80,69,29,38,23,26,38,6291,-4678,-13178,-5772,1697,734,-954,-21,-36,2
689,30,83,65,30,37,24,26,38,6283,-4681,-13180,-5774,1711,749,-960,-21,-43,3
712,29,84,68,27,37,25,28,37,6276,-4685,-13181,-5778,1703,753,-937,-25,-44,5
727,31,107,85,25,33,26,32,38,6271,-4685,-13181,-5783,1726,749,-925,-23,-37,-13
749,32,102,86,28,34,24,31,37,6268,-4680,-13182,-5787,1710,757,-937,2,-9,-30
772,31,98,84,30,28,24,32,42,6267,-4673,-13184,-5790,1724,733,-948,3,5,-43
787,33,101,80,28,29,24,32,46,6265,-4668,-13186,-5792,1705,729,-957,5,-4,-41
809,33,111,87,28,30,23,29,47,6263,-4665,-13188,-5791,1721,713,-957,5,-12,-29
832,28,90,72,31,33,22,26,44,6263,-4664,-13191,-5787,1719,718,-955,22,-15,-12
847,31,85,75,28,34,24,27,42,6263,-4664,-13192,-5783,1690,736,-983,18,4,10
869,30,90,76,26,34,25,26,37,6263,-4664,-13193,-5783,1697,735,-968,10,-5,5
892,30,95,76,27,35,24,28,32,6259,-4661,-13195,-5783,1699,737,-978,3,-7,-17
907,30,83,66,31,34,23,28,32,6254,-4660,-13198,-5784,1709,733,-987,-13,-17,-27
929,33,82,77,29,29,21,25,32,6247,-4662,-13200,-5785,1710,721,-974,-19,-33,-18
952,31,79,68,28,28,24,24,35,6241,-4664,-13202,-5783,1698,721,-965,-6,-38,-4
967,34,85,80,28,27,22,23,40,6237,-4668,-13204,-5781,1708,725,-968,-4,-30,3
989,32,79,82,27,25,25,21,41,6238,-4668,-13204,-5781,1723,734,-973,3,-10,-6
1012,31,76,76,22,25,25,19,39,6236,-4666,-13205,-5780,1726,736,-991,0,0,-17
1028,29,79,71,24,30,28,21,37,6236,-4662,-13206,-5781,1707,735,-961,6,3,-23
1049,35,97,83,25,29,31,24,36,6236,-4662,-13206,-5781,1685,726,-962,11,-3,-15
1072,35,89,73,32,30,31,25,34,6236,-4662,-13206,-5781,1690,727,-964,11,-2,5
1087,36,89,70,32,33,29,24,35,6238,-4662,-13207,-5778,1698,740,-964,19,4,15
1110,40,109,81,35,32,29,29,36,6243,-4660,-13206,-5777,1718,734,-953,15,18,0
1132,41,106,79,33,32,28,28,39,6249,-4654,-13204,-5778,1709,743,-953,18,39,-11
1147,34,90,96,33,31,21,26,45,6255,-4648,-13204,-5777,1720,741,-989,21,44,-17
1169,32,91,102,26,31,20,25,46,6258,-4645,-13204,-5776,1708,733,-977,16,24,-7
1192,30,87,105,27,29,21,27,45,6258,-4645,-13204,-5776,1707,729,-974,5,1,-13
1207,30,69,104,23,29,20,29,49,6258,-4645,-13205,-5775,1716,722,-998,-3,-8,-9
1229,29,81,108,25,25,21,30,48,6254,-4647,-13206,-5775,1737,741,-988,-12,-17,-6
1252,31,87,85,23,28,21,31,52,6250,-4649,-13206,-5777,1726,746,-973,-19,-25,-3
1267,31,92,80,23,29,22,32,54,6244,-4651,-13207,-5780,1726,745,-987,-28,-22,-12
1289,33,113,82,24,29,24,35,54,6241,-4649,-13206,-5786,1746,744,-962,-30,-10,-28
1312,31,112,83,27,29,25,31,56,6241,-4646,-13205,-5792,1766,736,-965,-23,0,-43
1328,29,111,77,26,30,25,32,56,6240,-4640,-13205,-5798,1765,738,-966,-19,4,-56
1349,34,110,102,31,27,24,30,45,6240,-4632,-13205,-5803,1741,748,-970,-8,19,-50
1372,36,116,117,33,26,24,28,36,6243,-4622,-13206,-5807,1729,746,-979,7,40,-51
1395,34,99,123,32,31,21,23,36,6250,-4609,-13204,-5814,1746,756,-969,7,65,-63
1409,34,113,120,30,33,20,23,29,6256,-4588,-13204,-5823,1759,777,-975,12,76,-102
1432,37,110,139,34,32,19,26,31,6259,-4566,-13205,-5835,1726,779,-971,6,80,-114
1455,31,108,125,31,31,20,27,33,6263,-4544,-13206,-5846,1710,750,-981,-8,88,-125
1469,37,94,113,28,32,20,31,38,6269,-4521,-13204,-5861,1716,727,-974,-29,111,-139
1492,42,99,115,31,26,21,34,40,6279,-4495,-13202,-5877,1732,725,-995,-30,143,-152
1515,43,81,113,33,29,23,39,41,6290,-4468,-13197,-5896,1761,736,-1004,-41,158,-167
1529,42,74,93,28,28,23,38,40,6301,-4439,-13193,-5916,1773,733,-1001,-50,165,-180
1552,45,70,89,31,28,22,39,41,6312,-4410,-13184,-5944,1785,782,-972,-76,172,-172
1575,41,70,92,30,25,22,38,37,6322,-4383,-13175,-5973,1815,796,-971,-85,163,-169
1589,36,59,85,28,25,20,37,33,6335,-4353,-13164,-6007,1860,845,-982,-98,195,-180
1612,36,73,86,27,19,18,34,31,6349,-4318,-13150,-6047,1868,862,-974,-119,222,-208
1635,36,77,89,30,20,19,31,26,6361,-4276,-13137,-6092,1867,876,-1008,-134,253,-254
1649,31,78,86,27,20,19,30,29,6371,-4227,-13125,-6143,1855,880,-999,-152,271,-300
1672,30,81,86,28,21,18,28,29,6374,-4179,-13113,-6198,1812,871,-988,-187,253,-331
1703,37,85,97,27,21,19,29,34,6371,-4134,-13100,-6258,1795,859,-962,-231,226,-341
1710,34,71,98,26,21,20,34,38,6366,-4090,-13086,-6320,1821,862,-948,-250,211,-363
1732,34,67,92,31,24,20,33,43,6356,-4046,-13073,-6386,1810,871,-920,-271,189,-382
1755,34,69,104,36,29,20,33,40,6345,-4002,-13059,-6453,1772,879,-886,-273,180,-382
1770,31,73,110,40,31,20,35,41,6334,-3959,-13044,-6521,1731,877,-868,-285,192,-377
1792,21,67,108,45,30,23,33,37,6323,-3914,-13027,-6591,1712,894,-859,-299,206,-385
1814,23,76,108,48,31,23,25,34,6313,-3872,-13007,-6665,1709,888,-815,-322,203,-387
1830,19,72,112,45,28,22,28,29,6301,-3832,-12986,-6741,1670,911,-805,-341,201,-374
1852,27,79,110,41,25,22,28,32,6287,-3794,-12963,-6818,1679,948,-793,-356,190,-364
1875,28,75,97,46,23,21,23,32,6273,-3751,-12941,-6896,1650,980,-760,-336,200,-376
1889,27,76,84,46,27,22,27,31,6257,-3707,-12922,-6970,1628,992,-742,-313,186,-381
1912,27,79,88,48,28,22,28,31,6240,-3660,-12902,-7047,1634,1027,-705,-312,178,-393
1942,30,97,90,49,28,22,26,30,6221,-3609,-12882,-7125,1586,1077,-660,-295,173,-398
1949,25,105,89,49,30,23,25,29,6202,-3556,-12866,-7199,1553,1101,-646,-266,169,-391
1972,24,102,107,47,30,24,26,28,6182,-3501,-12848,-7274,1503,1108,-585,-262,161,-391
1995,25,121,122,42,30,21,21,30,6161,-3444,-12831,-7348,1426,1114,-538,-233,155,-389
2009,29,123,136,37,34,20,19,31,6143,-3386,-12816,-7417,1361,1109,-499,-205,158,-373
2032,29,114,139,41,34,21,19,32,6125,-3330,-12801,-7482,1327,1106,-467,-186,149,-350
2055,32,113,151,44,32,23,18,35,6113,-3273,-12786,-7543,1325,1121,-453,-160,165,-331
2070,36,119,155,37,32,22,18,35,6109,-3220,-12768,-7599,1346,1146,-439,-141,190,-288
2092,41,119,150,38,33,20,17,37,6113,-3172,-12748,-7649,1374,1163,-413,-111,192,-232
2115,40,111,137,40,27,22,25,38,6122,-3130,-12730,-7690,1409,1196,-430,-84,191,-181
2130,39,118,131,38,28,22,26,37,6131,-3089,-12714,-7725,1398,1231,-436,-55,187,-155
2152,37,121,118,36,28,22,25,37,6140,-3053,-12701,-7753,1394,1226,-465,-42,176,-120
2175,33,123,103,36,30,23,26,39,6146,-3023,-12690,-7779,1395,1248,-482,-45,151,-97
2190,27,114,108,37,26,24,26,37,6148,-3002,-12680,-7801,1379,1237,-469,-50,101,-65
2212,24,126,140,37,29,25,19,32,6149,-2989,-12673,-7818,1404,1246,-460,-38,57,-25
2235,25,119,154,40,29,26,19,37,6148,-2988,-12672,-7819,1424,1254,-477,-16,7,5
2250,27,105,166,42,29,24,18,34,6145,-2985,-12670,-7826,1440,1286,-478,-5,-6,26
2272,28,103,173,41,27,23,19,40,6140,-2984,-12670,-7830,1436,1273,-500,-1,-12,23
2295,29,103,169,39,26,23,22,40,6133,-2985,-12671,-7834,1431,1251,-466,2,-46,24
2318,29,113,154,39,28,22,24,39,6124,-2991,-12674,-7835,1425,1241,-462,10,-76,36
2332,28,119,136,34,30,19,25,37,6114,-3007,-12675,-7834,1434,1240,-462,-14,-104,82
2355,27,123,116,28,27,19,29,38,6107,-3035,-12674,-7831,1468,1218,-449,-27,-138,129
2378,25,137,106,33,28,19,27,29,6101,-3067,-12673,-7824,1436,1197,-444,-11,-141,160
2392,26,150,102,33,31,20,25,29,6099,-3102,-12673,-7813,1442,1184,-461,-7,-137,191
2415,26,137,131,38,31,22,22,28,6100,-3137,-12675,-7794,1448,1184,-450,46,-143,213
2438,29,132,160,47,30,22,23,30,6104,-3171,-12680,-7769,1477,1190,-471,77,-136,219
2452,27,144,169,52,34,24,19,31,6113,-3199,-12683,-7745,1519,1214,-484,93,-93,213
2475,36,144,173,50,35,26,23,29,6129,-3221,-12685,-7721,1555,1199,-472,110,-59,186
2498,40,124,176,51,35,25,22,31,6148,-3232,-12689,-7694,1539,1193,-504,149,-9,163
2512,39,124,150,49,32,22,26,32,6166,-3238,-12698,-7662,1495,1180,-544,178,8,157
2535,38,131,134,41,35,23,25,31,6182,-3245,-12709,-7627,1456,1166,-560,186,-1,168
2558,37,112,142,36,32,22,24,28,6192,-3262,-12722,-7591,1445,1135,-566,166,-52,192
2572,32,105,142,34,28,20,21,25,6198,-3289,-12735,-7553,1483,1128,-576,152,-108,218
2603,25,103,138,38,30,19,26,30,6200,-3324,-12751,-7509,1535,1143,-604,158,-157,247
2618,26,99,133,34,32,20,25,30,6198,-3361,-12772,-7457,1550,1157,-634,196,-191,266
2632,24,86,118,32,26,20,24,27,6194,-3401,-12795,-7404,1547,1149,-638,202,-216,273
2655,26,86,98,32,27,19,24,29,6185,-3440,-12820,-7349,1531,1135,-639,216,-245,262
2677,22,60,84,32,29,17,25,28,6171,-3479,-12849,-7293,1525,1122,-642,225,-277,252
2694,22,67,95,33,26,20,26,21,6154,-3522,-12877,-7236,1522,1100,-640,214,-310,260
2715,24,73,90,34,26,19,23,21,6135,-3572,-12904,-7180,1527,1079,-658,194,-333,274
2737,25,77,106,36,30,18,25,23,6117,-3626,-12928,-7124,1549,1039,-672,178,-333,286
2752,31,97,103,36,29,18,25,30,6104,-3679,-12951,-7067,1560,1003,-681,179,-313,289
2775,32,107,111,38,32,23,25,33,6096,-3729,-12976,-7000,1564,938,-728,221,-286,277
2797,37,119,113,32,30,24,23,35,6089,-3781,-13001,-6932,1559,922,-771,220,-276,289
2812,37,113,111,29,27,30,28,36,6081,-3835,-13024,-6865,1612,930,-795,207,-287,300
2835,40,113,105,26,24,31,29,38,6073,-3893,-13048,-6794,1669,937,-820,220,-310,312
2857,37,103,113,28,25,33,31,33,6065,-3951,-13076,-6715,1639,931,-825,267,-327,340
2872,40,92,100,24,20,30,31,33,6060,-4009,-13102,-6633,1659,907,-858,279,-314,352
2895,39,75,85,24,23,29,29,37,6055,-4062,-13127,-6556,1672,910,-882,264,-286,328
2917,40,77,99,24,24,24,26,34,6053,-4110,-13148,-6484,1681,888,-883,255,-259,299
2932,36,75,84,22,24,25,25,33,6058,-4149,-13167,-6417,1702,871,-901,249,-199,266
2955,34,67,70,22,23,22,23,33,6069,-4187,-13180,-6354,1765,838,-928,224,-156,248
2977,32,66,75,24,21,22,25,32,6086,-4222,-13189,-6296,1803,842,-950,207,-113,248
2992,28,57,78,24,18,21,23,28,6111,-4255,-13195,-6238,1839,845,-962,218,-72,261
3015,25,55,58,24,18,22,24,33,6142,-4286,-13198,-6178,1832,808,-987,228,-23,266
3037,26,56,68,25,18,20,24,29,6176,-4312,-13201,-6120,1825,780,-1026,220,24,245
3052,27,74,83,24,20,20,26,28,6208,-4333,-13204,-6066,1844,769,-1082,201,51,209
3075,26,89,83,23,20,21,27,27,6239,-4351,-13204,-6021,1819,769,-1094,162,83,196
3097,26,106,84,25,23,19,30,29,6265,-4367,-13206,-5978,1804,749,-1097,153,66,165
3112,28,113,91,30,23,19,31,27,6284,-4382,-13209,-5939,1779,736,-1092,127,42,143
3135,25,110,92,33,24,20,30,40,6293,-4400,-13214,-5906,1788,741,-1069,95,-15,126
3158,23,99,82,33,28,23,31,40,6292,-4419,-13220,-5878,1774,754,-1049,68,-65,110
3172,27,89,80,35,33,24,31,39,6289,-4441,-13225,-5855,1767,747,-1018,43,-85,107
3195,28,69,81,33,32,24,28,40,6291,-4462,-13226,-5835,1772,754,-990,36,-62,123
3218,25,58,73,30,32,25,26,40,6294,-4482,-13225,-5818,1783,731,-963,25,-65,106
3240,27,60,73,28,33,23,26,28,6299,-4497,-13223,-5805,1786,726,-968,17,-38,79
3255,28,58,72,27,28,21,25,30,6303,-4510,-13221,-5796,1770,731,-980,5,-17,65
3278,24,48,72,25,26,21,22,39,6307,-4523,-13217,-5792,1777,732,-973,-18,-12,62
3300,22,44,70,25,35,28,23,40,6307,-4537,-13213,-5789,1778,739,-963,-30,-33,59
3315,21,37,74,24,53,39,25,45,6303,-4557,-13207,-5791,1750,759,-916,-59,-71,86
3337,21,55,71,28,55,43,33,47,6300,-4592,-13196,-5792,1791,755,-905,-97,-98,157
3360,26,69,75,28,58,44,32,50,6322,-4624,-13172,-5797,1857,754,-934,-96,54,195
3375,31,80,82,32,56,44,35,47,6358,-4634,-13152,-5795,1830,777,-913,19,143,153
3397,34,81,84,32,53,39,38,45,6395,-4611,-13143,-5794,1796,811,-937,119,212,12
3420,39,87,81,31,36,28,37,38,6417,-4567,-13146,-5797,1717,821,-977,130,211,-121
3435,43,85,78,27,31,24,29,42,6421,-4523,-13157,-5802,1659,817,-995,110,134,-168
3457,41,79,78,28,33,21,33,37,6409,-4489,-13173,-5804,1644,791,-989,78,30,-168
3480,37,70,66,25,33,19,31,32,6385,-4475,-13189,-5807,1648,738,-973,3,-73,-135
3495,35,70,66,26,36,22,28,31,6355,-4474,-13201,-5812,1683,729,-944,-51,-142,-99
3517,31,78,69,27,40,24,28,35,6328,-4484,-13208,-5817,1701,713,-920,-78,-158,-47
3540,24,70,74,27,41,23,29,29,6314,-4498,-13210,-5819,1693,699,-889,-60,-116,5
3555,22,79,72,26,42,23,24,28,6309,-4508,-13208,-5819,1711,706,-888,-35,-63,18
3577,25,82,81,27,45,27,26,30,6310,-4508,-13208,-5819,1733,727,-897,11,10,8
3600,24,80,80,27,47,28,25,28,6323,-4501,-13204,-5820,1731,763,-918,35,65,-3
3615,28,74,85,28,49,30,25,23,6334,-4489,-13202,-5821,1747,774,-947,34,74,-28
3637,28,84,82,32,49,32,28,25,6345,-4478,-13200,-5824,1756,772,-977,19,84,-37
3660,28,82,92,32,44,31,31,29,6351,-4468,-13198,-5828,1766,770,-1000,-3,75,-43
3674,25,89,100,32,46,32,29,29,6356,-4463,-13195,-5834,1863,748,-1066,-42,68,-54
3697,24,92,107,34,40,31,28,30,6358,-4455,-13190,-5849,1914,798,-1064,-74,71,-80
3720,19,86,102,32,35,29,28,33,6353,-4445,-13188,-5865,1914,808,-1036,-74,27,-109
3734,22,79,103,32,35,29,26,33,6343,-4430,-13189,-5887,1857,805,-1011,-88,17,-154
3757,28,68,106,39,36,29,28,33,6335,-4414,-13187,-5910,1806,770,-997,-103,44,-160
3780,27,54,96,55,36,30,28,31,6335,-4393,-13185,-5931,1763,742,-947,-70,79,-166
3795,44,57,94,69,63,58,42,37,6346,-4375,-13177,-5950,1785,711,-933,-70,119,-142
3817,47,79,99,78,72,67,45,37,6383,-4360,-13157,-5965,1792,734,-912,-37,251,-32
3840,46,78,98,79,79,67,49,41,6430,-4334,-13139,-5974,1702,734,-920,31,330,-38
3855,42,77,80,78,79,67,46,39,6470,-4309,-13121,-5990,1609,706,-884,-13,324,-54
3877,44,82,79,74,80,71,48,45,6494,-4282,-13107,-6013,1593,733,-842,-48,243,-101
3900,36,116,77,142,140,62,45,43,6512,-4258,-13097,-6033,1596,720,-792,-32,177,-110
3914,53,114,106,167,176,120,72,60,6570,-4249,-13066,-6042,1724,703,-767,-3,325,68
3937,60,118,112,171,200,147,82,60,6666,-4239,-13023,-6037,1667,749,-815,91,550,228
3960,60,120,113,172,203,147,82,60,6729,-4233,-13000,-6022,1585,779,-803,131,353,206
3974,62,130,115,177,204,147,82,56,6766,-4214,-12984,-6028,1619,859,-774,58,259,70
3997,59,116,125,136,171,148,80,54,6773,-4197,-12977,-6046,1630,895,-787,-13,128,-10
4020,43,108,102,111,142,106,57,38,6770,-4184,-12971,-6071,1680,912,-770,-68,65,-39
4034,36,104,104,121,114,77,42,35,6769,-4171,-12960,-6105,1697,917,-729,-103,75,-49
4057,42,107,110,134,124,77,43,37,6764,-4158,-12955,-6131,1678,887,-704,-63,32,-65
4080,41,99,118,131,126,75,40,37,6760,-4139,-12954,-6150,1670,886,-690,-12,24,-74
4094,39,103,130,119,113,65,36,36,6757,-4118,-12954,-6166,1654,887,-690,9,32,-84
4117,38,103,130,115,98,55,36,29,6747,-4100,-12957,-6183,1642,877,-708,-11,-7,-89
4140,43,104,126,98,117,57,36,32,6736,-4088,-12960,-6199,1626,846,-699,-29,-21,-80
4163,40,111,135,92,128,71,41,30,6732,-4078,-12958,-6213,1623,832,-697,-30,15,-49
4177,37,113,132,103,135,78,43,31,6736,-4071,-12954,-6221,1635,827,-722,-10,49,-11
4200,40,105,116,117,136,79,42,39,6740,-4070,-12951,-6223,1627,828,-734,2,32,31
4223,46,108,120,112,142,83,43,45,6741,-4077,-12951,-6217,1626,825,-735,20,-17,75
4237,39,107,117,113,118,71,40,42,6738,-4087,-12954,-6208,1631,835,-739,33,-45,86
4261,35,113,123,103,91,56,33,41,6729,-4098,-12961,-6196,1646,840,-757,40,-87,78
4283,35,113,121,84,79,50,34,40,6715,-4108,-12971,-6182,1629,831,-763,48,-117,67
4297,35,110,110,68,77,46,34,30,6696,-4125,-12984,-6166,1645,821,-763,43,-167,80
4320,37,109,101,65,65,37,31,19,6675,-4144,-12998,-6145,1658,802,-758,58,-201,82
4343,37,113,106,59,57,33,32,22,6652,-4165,-13016,-6120,1683,801,-776,75,-230,83
4357,39,99,83,54,53,33,30,26,6622,-4186,-13036,-6096,1673,814,-793,67,-257,74
4379,39,119,101,49,39,23,28,30,6580,-4208,-13061,-6070,1666,805,-821,63,-322,52
4402,36,112,99,30,35,24,28,31,6532,-4230,-13090,-6045,1650,794,-814,59,-362,27
4417,30,111,95,23,30,24,24,33,6485,-4254,-13117,-6020,1663,764,-836,48,-357,21
4439,29,103,86,19,33,27,22,32,6442,-4282,-13142,-5993,1653,751,-857,41,-346,51
4463,28,99,79,21,32,25,25,29,6404,-4317,-13163,-5961,1686,717,-898,37,-327,94
4477,30,69,38,30,32,24,26,28,6373,-4359,-13178,-5930,1726,702,-926,10,-303,133
4500,30,62,36,32,30,43,42,30,6347,-4404,-13192,-5894,1736,702,-939,31,-295,167
4523,30,58,35,34,36,56,46,27,6323,-4452,-13207,-5850,1735,676,-967,61,-293,196
4545,30,59,29,35,54,57,48,32,6302,-4503,-13221,-5802,1750,674,-1006,69,-289,222
4559,32,68,30,34,58,59,48,32,6284,-4559,-13233,-5750,1783,678,-1024,82,-288,267
4583,29,72,28,26,58,60,47,29,6271,-4616,-13243,-5697,1787,683,-1029,95,-274,298
4597,32,79,33,26,58,49,33,26,6257,-4674,-13253,-5640,1786,681,-1045,112,-279,312
4619,30,95,38,25,56,33,27,27,6249,-4726,-13262,-5584,1819,689,-1053,136,-256,301
4643,30,101,58,25,38,30,23,19,6239,-4770,-13270,-5540,1813,737,-1059,110,-220,266
4657,29,99,61,27,33,27,22,23,6231,-4804,-13275,-5509,1826,748,-1054,77,-180,207
4679,28,90,92,29,34,26,21,22,6229,-4828,-13274,-5490,1810,742,-1003,49,-118,165
4703,25,87,100,28,32,22,21,24,6237,-4844,-13268,-5482,1863,721,-990,29,-52,110
4717,24,76,101,28,31,22,22,26,6253,-4850,-13259,-5480,1850,700,-995,20,31,73
4740,22,82,94,28,29,22,22,26,6276,-4851,-13250,-5474,1826,641,-990,43,69,42
4763,23,80,100,26,29,22,21,23,6300,-4846,-13244,-5466,1788,616,-1040,59,110,23
4777,23,79,76,25,27,22,22,27,6324,-4840,-13237,-5460,1745,612,-1055,51,138,20
4800,22,84,72,26,27,22,23,27,6342,-4837,-13232,-5454,1746,603,-1067,29,114,19
4823,19,76,84,29,34,23,24,25,6356,-4838,-13226,-5450,1755,610,-1078,4,93,28
4837,19,60,86,28,34,23,23,24,6367,-4842,-13220,-5449,1748,639,-1071,-11,77,44
4859,17,54,77,28,36,24,22,25,6370,-4846,-13215,-5454,1774,659,-1050,-34,39,19
4883,19,60,82,28,34,24,23,24,6371,-4848,-13212,-5459,1784,638,-1039,-41,19,-8
4897,20,58,80,28,38,28,21,24,6369,-4847,-13211,-5464,1766,638,-1020,-31,1,-23
4919,24,61,73,24,34,26,21,31,6366,-4848,-13211,-5467,1748,638,-1006,-27,-10,-16
4943,24,65,76,25,33,25,22,32,6363,-4850,-13210,-5471,1764,646,-1005,-28,-15,-10
4957,24,94,93,28,31,23,22,33,6361,-4850,-13209,-5475,1762,648,-992,-26,-12,-19
4980,29,109,97,29,32,25,27,33,6363,-4847,-13207,-5481,1746,657,-1007,-21,25,-16
17,Repeat 7,,,,,,,,,,,,,,,,,
31,26,105,87,26,31,23,25,28,6365,-4842,-13203,-5494,1737,665,-970,-20,10,-26
54,26,109,83,27,31,24,25,27,6363,-4839,-13202,-5500,1737,663,-988,-20,5,-28
77,30,103,68,25,30,25,28,28,6362,-4835,-13202,-5506,1734,668,-985,-17,9,-28
91,25,81,57,24,32,24,23,28,6362,-4830,-13201,-5511,1717,658,-990,-16,23,-30
114,27,82,62,23,27,23,24,26,6360,-4825,-13202,-5517,1711,649,-993,-18,12,-41
137,26,125,73,26,27,22,28,26,6358,-4819,-13203,-5520,1701,647,-983,-5,10,-43
159,30,128,72,27,26,22,28,29,6357,-4815,-13204,-5523,1707,647,-972,-8,-1,-32
174,25,118,92,26,27,22,25,27,6357,-4815,-13204,-5523,1706,651,-979,-3,9,-11
197,25,122,98,26,26,21,24,27,6357,-4815,-13204,-5523,1728,651,-962,-5,5,1
219,23,125,100,26,24,21,26,26,6361,-4813,-13202,-5527,1721,672,-974,-3,25,-2
234,26,95,97,24,21,21,22,27,6364,-4810,-13200,-5529,1725,668,-982,-2,28,-4
257,24,81,99,24,22,19,23,27,6369,-4806,-13199,-5530,1726,664,-973,13,26,-10
280,29,86,90,28,24,18,25,27,6369,-4806,-13199,-5530,1725,668,-1000,6,15,-10
294,28,87,90,29,25,28,27,25,6368,-4806,-13199,-5530,1727,664,-994,13,13,-10
317,27,87,87,31,31,28,26,25,6368,-4806,-13199,-5530,1725,660,-992,-7,6,-1
340,28,83,83,33,36,29,26,24,6366,-4807,-13199,-5531,1730,668,-973,-8,-18,2
354,26,91,79,34,36,30,25,21,6363,-4807,-13201,-5531,1734,666,-981,4,-21,-7
377,27,92,79,33,39,30,23,21,6359,-4808,-13203,-5529,1730,658,-999,-2,-27,-6
400,27,90,80,34,38,21,22,23,6357,-4809,-13204,-5528,1720,653,-961,3,-23,-4
414,29,85,81,31,33,21,21,23,6357,-4809,-13204,-5528,1732,660,-987,9,-10,-5
437,26,98,86,33,33,23,24,24,6357,-4809,-13204,-5528,1726,655,-986,7,-16,3
459,28,101,96,32,34,25,24,24,6357,-4809,-13204,-5528,1721,647,-981,3,-15,1
474,21,99,90,31,28,25,27,23,6357,-4809,-13204,-5528,1713,662,-989,-9,6,5
497,26,97,80,29,31,25,27,24,6357,-4809,-13204,-5528,1736,675,-988,-16,-3,6
519,28,103,87,30,32,25,27,24,6357,-4809,-13204,-5528,1729,667,-998,6,-6,-13
534,28,96,80,27,27,23,28,22,6357,-4809,-13204,-5528,1727,671,-996,3,-8,-16
565,28,94,75,27,29,20,28,21,6357,-4809,-13205,-5528,1721,657,-1001,0,-14,-15
579,28,87,79,24,29,22,25,20,6357,-4809,-13205,-5528,1721,659,-983,-4,-13,-11
594,32,93,84,27,29,25,25,16,6357,-4809,-13204,-5528,1727,660,-982,2,-15,-6
617,32,84,76,31,34,24,26,18,6357,-4809,-13205,-5528,1727,661,-999,6,4,3
640,34,74,84,30,35,25,24,20,6357,-4809,-13205,-5528,1725,659,-988,-6,4,10
654,33,73,78,34,34,27,25,23,6357,-4809,-13205,-5528,1720,657,-990,5,0,-4
677,35,79,74,35,35,25,24,27,6356,-4809,-13205,-5528,1733,664,-1002,6,4,-5
700,28,74,70,34,35,23,23,28,6356,-4809,-13205,-5528,1721,670,-991,6,-3,-5
714,32,100,80,29,30,24,22,28,6353,-4809,-13207,-5527,1726,664,-999,2,-18,-8
737,29,104,76,30,28,24,22,28,6349,-4810,-13209,-5525,1726,660,-1000,-1,-21,-4
760,34,114,83,26,25,22,20,32,6346,-4813,-13209,-5525,1736,653,-993,-14,-22,4
782,32,113,79,25,23,23,20,30,6346,-4813,-13209,-5525,1739,672,-1007,-3,-16,15
797,32,112,80,23,19,23,22,29,6348,-4817,-13207,-5526,1744,683,-980,-6,-5,28
820,28,102,72,25,22,23,22,31,6348,-4817,-13207,-5526,1737,687,-985,3,5,5
834,37,113,75,32,28,24,20,30,6350,-4812,-13207,-5527,1737,671,-989,11,18,-15
857,32,97,70,33,34,26,24,24,6353,-4805,-13208,-5527,1740,666,-986,27,16,-30
879,31,92,70,35,35,24,27,26,6357,-4802,-13208,-5525,1734,652,-1003,12,26,-7
894,30,105,81,37,36,23,25,26,6361,-4800,-13207,-5525,1738,653,-998,9,26,-9
917,33,113,93,37,35,23,27,25,6365,-4798,-13207,-5523,1735,643,-1001,12,20,-4
939,22,107,92,30,33,22,29,26,6365,-4798,-13207,-5522,1734,653,-1014,13,10,-6
954,22,107,94,33,27,20,27,27,6365,-4798,-13207,-5522,1720,656,-1002,6,-15,-7
977,23,109,110,34,32,23,26,25,6361,-4798,-13210,-5521,1713,660,-994,2,-18,-12
999,24,99,107,35,31,25,27,26,6360,-4798,-13210,-5521,1701,659,-981,-15,-15,1
1014,39,82,106,40,33,26,27,23,6356,-4804,-13209,-5522,1698,632,-994,-34,-22,10
1038,40,66,113,42,33,26,24,23,6354,-4808,-13209,-5521,1701,650,-961,-8,-23,14
1059,39,72,117,43,33,25,24,22,6351,-4810,-13212,-5517,1719,646,-993,10,-28,1
1074,40,71,110,43,29,23,21,22,6347,-4813,-13213,-5517,1708,656,-972,-9,-34,8
1097,40,76,117,46,32,24,26,22,6344,-4818,-13212,-5518,1707,668,-981,-18,-15,20
1119,26,66,106,45,29,23,26,23,6343,-4821,-13209,-5521,1727,674,-958,-19,-19,17
1142,28,72,109,47,29,22,27,25,6340,-4823,-13210,-5521,1731,669,-982,-5,-26,1
1157,29,73,103,45,32,22,29,26,6340,-4823,-13210,-5522,1744,683,-992,2,-12,-5
1179,28,68,91,41,31,27,30,25,6340,-4823,-13210,-5522,1739,670,-985,-13,-11,-14
1202,30,57,78,36,30,26,27,27,6334,-4822,-13212,-5526,1738,661,-1005,-25,-25,-32
1217,25,54,74,30,33,29,25,30,6325,-4821,-13216,-5525,1721,649,-1015,-10,-38,-30
1239,24,49,67,26,32,29,24,26,6316,-4823,-13220,-5524,1740,660,-1009,-12,-57,-20
1262,23,53,65,36,37,36,24,27,6304,-4828,-13224,-5525,1759,664,-997,-29,-82,-16
1277,24,59,67,38,44,36,24,28,6297,-4835,-13223,-5528,1799,666,-996,-40,-59,-2
1299,21,62,71,41,45,34,24,27,6298,-4845,-13219,-5529,1829,637,-1030,-43,-19,17
1322,28,67,70,44,48,35,25,26,6309,-4850,-13210,-5534,1834,657,-1023,-37,46,25
1337,30,71,66,61,64,61,38,28,6328,-4850,-13198,-5540,1840,673,-1055,-29,119,27
1359,29,60,67,61,71,69,39,27,6357,-4847,-13183,-5547,1833,658,-1025,-14,173,35
1382,29,56,64,69,71,68,39,26,6387,-4840,-13168,-5553,1792,679,-1079,-1,218,34
1396,31,53,56,70,74,70,40,28,6405,-4833,-13158,-5561,1744,676,-1075,-24,178,9
1419,29,53,61,71,73,68,39,26,6414,-4828,-13150,-5573,1759,671,-1055,-57,120,-17
1442,28,47,47,61,62,51,27,29,6413,-4824,-13147,-5588,1736,653,-1021,-78,57,-50
1456,33,52,43,64,50,40,27,28,6403,-4822,-13146,-5603,1728,655,-994,-93,1,-64
1479,34,55,39,61,48,39,29,29,6396,-4823,-13142,-5618,1751,642,-992,-96,8,-53
1502,32,68,42,59,42,37,28,31,6390,-4823,-13139,-5631,1755,634,-974,-88,3,-60
1516,31,77,63,59,45,39,32,31,6387,-4821,-13137,-5644,1751,625,-964,-76,10,-63
1539,31,77,70,56,44,36,31,31,6385,-4814,-13133,-5660,1693,644,-950,-80,46,-72
1562,27,78,75,46,46,29,27,32,6383,-4805,-13128,-5682,1665,665,-938,-88,63,-85
1576,28,82,80,45,58,36,25,33,6384,-4796,-13121,-5704,1703,681,-918,-87,64,-73
1600,28,81,93,45,57,37,26,27,6392,-4790,-13109,-5726,1717,696,-899,-88,98,-37
1622,30,72,91,48,57,37,27,25,6401,-4781,-13101,-5743,1686,721,-900,-47,97,-23
1636,28,70,86,49,55,36,29,24,6416,-4769,-13092,-5757,1680,714,-893,-20,126,-22
1659,27,65,81,47,52,38,29,23,6427,-4755,-13084,-5776,1689,744,-897,-34,121,-43
1689,27,61,80,53,83,48,35,26,6429,-4737,-13079,-5797,1700,745,-883,-41,81,-89
1696,32,65,95,57,107,61,40,29,6429,-4720,-13075,-5821,1714,739,-850,-59,51,-106
1719,28,66,99,55,106,62,38,29,6436,-4706,-13067,-5842,1729,744,-896,-61,108,-65
1742,28,67,98,58,113,65,36,30,6447,-4696,-13058,-5859,1715,741,-902,-44,114,-36
1756,30,73,101,59,115,65,38,30,6453,-4686,-13054,-5869,1690,732,-879,-18,72,-36
1779,29,72,102,54,89,53,32,26,6453,-4675,-13054,-5878,1679,748,-876,-2,37,-43
1802,29,85,85,48,64,37,26,23,6442,-4670,-13059,-5882,1640,757,-876,-3,-31,-31
1816,29,87,72,44,60,33,24,23,6420,-4669,-13069,-5885,1646,761,-869,-12,-113,-43
1839,28,89,77,38,48,27,25,20,6387,-4671,-13085,-5885,1632,750,-882,-18,-179,-54
1862,29,99,77,38,42,25,24,20,6348,-4675,-13103,-5882,1626,731,-865,-7,-230,-66
1876,29,100,87,32,39,25,24,20,6312,-4676,-13124,-5874,1612,719,-870,22,-227,-75
1900,26,78,83,32,33,33,29,24,6280,-4677,-13142,-5867,1629,742,-897,22,-192,-58
1922,26,84,78,33,32,33,31,25,6254,-4676,-13159,-5858,1649,729,-878,44,-181,-59
1936,31,92,80,35,30,34,30,29,6233,-4674,-13174,-5850,1645,744,-890,50,-150,-48
1959,27,80,81,34,29,34,28,28,6218,-4674,-13187,-5835,1675,753,-935,75,-124,-10
1982,26,79,68,28,28,33,31,29,6209,-4679,-13196,-5819,1697,762,-946,73,-101,33
1997,26,78,60,28,25,23,25,26,6202,-4686,-13204,-5803,1710,756,-950,69,-98,43
2020,38,109,62,29,29,22,23,27,6198,-4693,-13211,-5786,1720,742,-954,72,-91,44
2042,35,103,59,25,29,18,24,23,6195,-4699,-13217,-5771,1728,753,-986,69,-65,48
2065,34,101,54,24,28,17,25,24,6195,-4705,-13221,-5756,1714,735,-978,59,-49,52
2079,34,99,49,25,28,19,22,23,6197,-4712,-13224,-5741,1717,691,-990,53,-36,41
2102,32,103,55,25,30,20,21,21,6202,-4716,-13227,-5726,1725,700,-996,59,-17,37
2125,23,100,50,21,29,22,20,19,6206,-4723,-13231,-5708,1711,698,-1004,73,-26,64
2140,24,96,57,20,28,24,21,19,6210,-4736,-13233,-5688,1714,703,-1006,63,-38,95
2162,26,99,60,21,29,23,23,22,6214,-4752,-13233,-5670,1705,702,-1022,51,-31,113
2185,28,100,62,22,28,23,22,26,6221,-4768,-13231,-5652,1693,686,-982,50,-26,124
2200,29,100,66,22,28,22,22,25,6234,-4780,-13228,-5636,1701,685,-978,59,12,110
2222,25,63,73,22,26,22,22,26,6252,-4787,-13221,-5626,1737,702,-959,55,40,99
2245,25,76,73,26,26,21,20,26,6273,-4789,-13216,-5614,1766,670,-992,71,74,65
2260,24,73,77,25,26,22,17,24,6296,-4785,-13211,-5603,1749,658,-1008,75,103,40
2282,24,84,91,26,28,24,16,22,6317,-4778,-13208,-5592,1751,656,-1035,74,111,20
2305,24,85,114,27,27,22,22,25,6335,-4774,-13205,-5581,1752,646,-1054,63,101,25
2320,28,93,117,28,27,24,22,25,6347,-4773,-13204,-5571,1732,662,-1053,46,69,33
2342,26,84,113,26,35,27,23,27,6353,-4777,-13204,-5560,1725,652,-1037,38,26,44
2365,26,87,111,28,38,27,23,26,6355,-4783,-13205,-5552,1755,640,-1012,16,-13,29
2380,28,93,110,28,36,25,23,23,6357,-4790,-13203,-5547,1794,652,-1023,-3,-9,29
2402,32,101,84,27,36,28,17,21,6361,-4800,-13200,-5541,1779,644,-1011,-9,-9,50
2425,29,90,77,27,36,28,20,20,6366,-4809,-13196,-5537,1784,657,-1004,-4,3,54
2440,33,108,88,28,29,26,22,22,6371,-4816,-13192,-5535,1764,672,-1000,-1,14,49
2462,32,109,89,26,29,25,23,22,6375,-4820,-13189,-5534,1743,677,-996,-4,14,39
2485,28,94,78,25,34,25,23,21,6377,-4824,-13186,-5537,1735,699,-975,-18,9,37
2499,23,84,71,25,34,23,24,25,6375,-4826,-13184,-5542,1754,685,-970,-22,-16,7
2522,27,93,73,25,32,21,22,24,6375,-4826,-13184,-5542,1743,679,-955,-12,-9,-9
11,Repeat 8,,,,,,,,,,,,,,,,,
25,26,93,81,22,29,20,25,25,6375,-4818,-13186,-5543,1738,648,-993,11,13,-25
49,28,98,80,22,26,20,26,25,6379,-4815,-13185,-5543,1731,654,-978,11,21,-12
71,28,94,83,21,24,19,25,22,6381,-4811,-13186,-5541,1730,644,-995,16,19,-18
85,25,87,82,21,25,20,27,25,6381,-4811,-13187,-5541,1717,643,-1011,3,3,-11
109,23,85,71,25,25,20,23,23,6378,-4813,-13188,-5540,1747,661,-998,-11,-17,-1
131,24,81,66,25,27,22,25,22,6377,-4813,-13188,-5540,1727,674,-992,-3,-8,4
145,22,74,67,28,27,22,25,23,6378,-4813,-13188,-5541,1741,668,-972,-5,-16,2
169,25,75,83,42,28,27,30,27,6377,-4810,-13189,-5540,1745,656,-980,9,-9,-21
191,26,87,107,44,31,27,30,26,6378,-4805,-13190,-5541,1747,673,-991,12,12,-25
205,25,72,105,46,31,27,31,24,6378,-4801,-13191,-5542,1746,663,-990,6,11,-24
229,24,80,117,46,30,25,27,24,6378,-4801,-13191,-5542,1735,664,-1000,-14,8,-16
251,25,85,132,45,29,25,28,25,6378,-4801,-13191,-5542,1714,653,-977,-10,4,-11
265,21,92,125,35,29,19,23,23,6378,-4801,-13191,-5542,1733,658,-984,-8,0,-8
289,17,83,103,33,29,19,22,22,6379,-4801,-13191,-5542,1730,655,-974,-8,-8,-5
311,18,85,111,30,27,20,19,23,6379,-4801,-13191,-5542,1723,657,-962,5,-11,1
325,19,82,94,30,29,20,18,23,6379,-4801,-13191,-5542,1711,657,-976,4,-1,4
349,20,86,74,32,30,21,18,22,6379,-4801,-13191,-5542,1715,663,-961,-1,2,-2
371,21,77,65,30,28,21,21,20,6382,-4799,-13189,-5545,1737,677,-976,-6,21,-1
386,22,71,62,29,26,22,23,21,6382,-4799,-13189,-5545,1760,666,-975,-5,13,-8
409,23,73,71,26,28,21,23,21,6384,-4798,-13188,-5545,1749,671,-993,5,17,-1
431,42,79,98,28,30,23,24,25,6384,-4798,-13188,-5545,1736,677,-1005,2,6,6
454,46,73,100,27,30,23,25,24,6384,-4798,-13188,-5546,1722,688,-983,15,1,3
469,45,76,102,28,33,26,23,26,6378,-4796,-13192,-5544,1714,676,-998,9,-24,-11
491,46,77,109,30,33,24,20,26,6370,-4796,-13196,-5545,1706,681,-988,-9,-34,-12
514,46,74,101,43,37,29,23,31,6363,-4800,-13197,-5547,1728,672,-957,-20,-50,-4
529,32,97,80,45,37,28,23,29,6362,-4803,-13195,-5548,1743,668,-952,-9,-23,16
551,26,120,79,44,35,27,25,29,6367,-4806,-13193,-5546,1732,652,-975,4,13,20
574,29,118,76,46,32,26,24,29,6375,-4807,-13191,-5542,1725,654,-973,21,27,30
589,27,121,79,47,33,27,25,27,6380,-4805,-13190,-5539,1700,666,-968,27,24,13
611,25,121,91,40,32,27,24,22,6382,-4805,-13191,-5536,1695,653,-986,20,16,14
634,25,98,96,38,29,26,27,23,6384,-4808,-13191,-5531,1706,650,-985,13,0,27
649,24,79,113,47,34,28,25,23,6384,-4812,-13190,-5528,1727,667,-996,3,-1,28
671,21,78,116,45,36,28,24,21,6384,-4817,-13189,-5527,1764,659,-995,-11,-14,25
694,21,72,115,44,36,28,25,21,6382,-4821,-13189,-5525,1769,670,-1007,-2,-20,19
709,23,70,116,42,38,26,25,22,6381,-4825,-13189,-5524,1747,670,-991,-4,-18,19
731,19,65,110,40,40,28,24,20,6378,-4828,-13189,-5523,1735,660,-979,-5,-26,11
754,19,52,94,32,38,27,24,23,6372,-4831,-13191,-5522,1735,660,-1005,-13,-30,1
769,18,52,96,33,38,26,25,24,6365,-4834,-13192,-5525,1737,666,-996,-29,-32,-7
791,21,56,91,35,37,26,23,25,6355,-4837,-13195,-5529,1748,663,-1008,-38,-47,-22
814,20,62,68,32,33,24,25,22,6343,-4841,-13197,-5533,1761,659,-1025,-48,-54,-22
829,20,59,64,30,31,25,22,22,6329,-4847,-13200,-5536,1782,646,-1046,-61,-66,-28
851,21,52,58,27,32,24,21,24,6315,-4852,-13203,-5542,1817,657,-1034,-66,-77,-41
874,21,52,51,33,36,24,23,24,6300,-4856,-13205,-5549,1839,654,-1053,-72,-75,-55
889,19,54,42,37,40,27,23,27,6285,-4862,-13208,-5555,1840,651,-1062,-74,-76,-52
911,21,49,49,53,39,27,22,27,6272,-4867,-13210,-5561,1800,659,-1056,-71,-61,-37
934,22,50,50,63,48,28,25,29,6270,-4869,-13206,-5571,1799,659,-1061,-77,18,-30
948,20,51,46,64,52,29,25,25,6276,-4869,-13196,-5586,1797,666,-1051,-84,78,-19
971,22,55,53,62,50,34,25,25,6291,-4860,-13186,-5602,1764,664,-1023,-62,140,-43
994,24,63,59,60,61,30,27,22,6307,-4845,-13175,-5622,1747,664,-1018,-60,165,-79
1008,36,67,96,64,85,48,30,28,6322,-4827,-13167,-5641,1745,670,-1002,-45,158,-85
1031,40,81,111,92,116,57,32,29,6347,-4813,-13154,-5655,1748,625,-951,-30,179,-52
1054,42,89,117,127,154,60,33,31,6397,-4806,-13127,-5667,1768,646,-975,-21,315,57
1068,54,92,134,133,172,65,36,39,6465,-4794,-13094,-5676,1768,655,-923,31,402,101
1091,56,92,144,139,172,67,37,44,6524,-4773,-13069,-5684,1685,660,-927,53,387,49
1114,53,94,133,149,178,66,37,40,6564,-4746,-13051,-5701,1674,682,-928,16,326,-31
1128,58,91,130,175,289,122,63,52,6597,-4720,-13033,-5727,1696,688,-887,-37,287,-67
1151,58,95,130,171,308,132,67,51,6656,-4704,-12998,-5752,1797,690,-843,-35,388,43
1174,48,97,110,173,300,134,68,46,6706,-4687,-12972,-5765,1735,683,-858,12,337,47
1188,52,101,118,181,305,155,83,51,6744,-4669,-12952,-5782,1724,702,-841,-1,278,12
1211,51,98,114,188,321,167,88,56,6768,-4653,-12935,-5803,1738,695,-828,-46,210,-28
1234,43,101,130,157,227,139,75,45,6795,-4640,-12915,-5826,1759,712,-790,-51,203,-9
1248,44,97,127,142,185,127,73,46,6815,-4624,-12900,-5849,1740,734,-817,-50,198,-25
1271,42,91,127,142,190,123,71,45,6823,-4611,-12888,-5877,1714,747,-807,-88,140,-45
1294,35,88,106,138,215,107,56,37,6808,-4603,-12889,-5898,1690,743,-788,-72,-17,-79
1308,30,89,103,117,189,92,50,32,6793,-4598,-12892,-5912,1720,721,-785,-60,-51,-66
1331,28,85,68,118,199,81,45,30,6781,-4597,-12893,-5924,1731,709,-759,-54,-53,-47
1354,31,82,68,131,201,92,50,33,6783,-4591,-12888,-5938,1762,714,-743,-33,21,-39
1376,30,89,69,124,203,94,50,34,6786,-4583,-12884,-5950,1733,721,-760,-26,39,-37
1391,37,116,81,119,168,92,51,37,6783,-4576,-12884,-5958,1739,731,-788,-13,8,-37
1414,36,113,72,120,176,90,49,35,6781,-4569,-12883,-5968,1694,733,-762,-22,11,-32
1436,35,110,73,118,163,93,51,37,6785,-4567,-12879,-5973,1718,710,-761,-9,32,2
1452,35,111,77,130,156,89,47,41,6788,-4563,-12879,-5973,1723,714,-765,22,7,4
1474,40,111,97,130,167,101,58,46,6793,-4560,-12878,-5972,1719,700,-780,22,24,4
1497,34,76,86,138,180,91,54,42,6798,-4564,-12878,-5965,1732,687,-805,23,12,40
1512,35,72,83,134,158,88,53,40,6805,-4566,-12876,-5958,1726,696,-779,42,16,49
1534,34,74,91,135,148,80,51,38,6810,-4567,-12879,-5946,1725,687,-804,54,0,40
1557,39,93,110,104,137,73,48,32,6807,-4570,-12884,-5935,1702,693,-828,45,-29,33
1579,35,88,92,101,116,51,33,24,6798,-4578,-12891,-5925,1704,702,-832,24,-64,43
1594,35,86,90,80,91,46,30,21,6778,-4588,-12901,-5918,1703,722,-813,2,-133,29
1617,32,92,115,77,88,33,27,23,6738,-4601,-12924,-5903,1682,728,-845,26,-257,2
1631,33,107,114,52,70,32,28,25,6667,-4620,-12966,-5878,1638,714,-861,42,-458,-41
1654,23,86,92,44,61,30,28,22,6572,-4636,-13020,-5853,1597,712,-826,42,-607,-115
1677,22,88,90,41,49,28,28,21,6483,-4648,-13067,-5836,1623,675,-800,12,-573,-159
1691,20,91,91,36,39,28,28,23,6414,-4664,-13103,-5820,1676,655,-813,1,-479,-112
1714,27,112,98,28,34,25,27,22,6367,-4685,-13126,-5802,1721,672,-853,8,-370,-19
1737,41,125,125,30,31,21,24,26,6343,-4711,-13137,-5783,1752,679,-876,15,-252,70
1759,41,132,137,28,31,21,22,29,6343,-4737,-13138,-5760,1786,693,-902,52,-127,146
1774,42,134,144,29,29,22,23,32,6354,-4761,-13135,-5735,1816,687,-959,66,-48,165
1797,43,134,150,32,32,26,22,31,6372,-4780,-13130,-5710,1854,697,-986,85,-7,160
1812,41,122,144,36,37,24,27,33,6387,-4792,-13130,-5683,1853,719,-1028,114,5,134
1834,32,89,121,34,35,23,26,30,6394,-4803,-13131,-5662,1811,748,-1036,90,-11,128
1857,32,80,108,34,39,24,26,26,6395,-4818,-13136,-5639,1784,727,-1030,78,-56,123
1871,32,74,107,32,41,24,26,24,6391,-4833,-13141,-5618,1785,712,-1024,70,-76,108
1894,33,76,102,30,38,21,26,25,6386,-4845,-13147,-5599,1775,698,-1010,58,-87,84
1916,30,78,75,26,35,22,22,22,6382,-4855,-13152,-5584,1765,654,-974,50,-76,51
1931,23,84,65,23,34,24,22,20,6386,-4860,-13153,-5571,1767,623,-957,48,-36,36
1954,24,83,73,22,31,24,23,24,6396,-4863,-13153,-5560,1781,599,-962,47,4,21
1977,22,82,69,26,27,24,23,26,6410,-4862,-13149,-5551,1798,586,-990,38,51,8
1991,33,84,67,27,31,24,26,24,6429,-4861,-13144,-5544,1820,586,-1015,32,86,14
2015,33,64,66,26,28,26,23,24,6450,-4858,-13138,-5535,1808,590,-1037,42,113,16
2036,34,65,80,28,26,26,25,25,6466,-4856,-13135,-5526,1796,583,-1072,35,105,9
2051,35,77,87,31,26,24,24,25,6474,-4855,-13134,-5518,1772,601,-1095,16,75,8
2074,36,83,86,28,27,24,23,22,6473,-4860,-13137,-5510,1760,594,-1087,-4,18,11
2096,28,85,87,29,25,24,22,22,6462,-4873,-13139,-5507,1769,621,-1045,-46,-59,29
2111,27,88,101,29,29,24,22,23,6443,-4889,-13143,-5505,1778,624,-1011,-62,-116,22
2134,26,97,96,29,32,22,22,21,6429,-4902,-13144,-5507,1798,632,-985,-58,-101,13
2156,31,121,93,25,31,23,24,17,6420,-4910,-13144,-5511,1795,633,-956,-49,-70,-3
2171,30,124,94,25,34,22,27,17,6419,-4909,-13143,-5515,1787,633,-950,-17,-19,-21
2194,26,118,92,25,34,22,28,18,6425,-4903,-13140,-5520,1757,655,-955,3,34,-21
2216,27,116,78,24,30,21,28,21,6427,-4898,-13138,-5527,1748,670,-947,-14,23,-18
2231,34,109,71,27,28,22,26,25,6427,-4893,-13136,-5536,1740,669,-943,-19,12,-26
2254,29,80,70,31,28,22,25,25,6426,-4889,-13135,-5543,1740,669,-951,-16,10,-25
2276,30,75,67,31,24,21,25,26,6423,-4884,-13137,-5548,1743,671,-984,-10,6,-31
2291,32,73,64,30,25,22,23,25,6419,-4880,-13138,-5554,1743,674,-977,-19,-1,-33
2314,31,76,67,30,27,24,26,21,6413,-4876,-13140,-5558,1742,664,-966,-14,-22,-38
2336,23,65,67,27,28,22,27,18,6405,-4873,-13143,-5563,1741,665,-968,-21,-28,-38
2359,27,67,61,22,28,23,28,20,6399,-4871,-13144,-5568,1739,663,-962,-23,-28,-33
2374,27,79,59,26,28,24,26,25,6394,-4870,-13146,-5571,1734,654,-961,-13,-25,-25
21,Repeat 9,,,,,,,,,,,,,,,,,
43,28,77,52,26,28,22,23,26,6383,-4866,-13153,-5572,1722,652,-966,4,-31,-26
58,31,80,53,28,24,21,21,26,6375,-4867,-13157,-5570,1712,649,-973,-3,-50,-15
81,26,67,44,28,27,21,22,25,6365,-4871,-13161,-5568,1701,657,-966,-5,-61,-1
103,26,46,35,25,35,24,23,26,6355,-4879,-13164,-5565,1691,634,-964,-21,-71,15
118,34,49,51,31,36,26,24,30,6345,-4892,-13166,-5561,1700,637,-948,-22,-89,42
141,34,61,54,30,36,24,24,31,6339,-4905,-13167,-5554,1714,647,-934,1,-89,56
163,31,54,53,30,37,27,23,31,6337,-4915,-13168,-5545,1700,650,-960,23,-51,63
178,31,61,65,31,38,27,21,31,6340,-4922,-13166,-5539,1716,663,-962,19,-12,58
201,30,75,80,34,34,26,18,27,6348,-4922,-13163,-5537,1759,671,-965,26,18,33
223,25,99,75,31,34,25,17,21,6359,-4918,-13160,-5535,1771,673,-984,40,49,13
238,25,96,73,40,38,27,19,23,6369,-4912,-13159,-5533,1762,666,-1016,30,63,-1
261,26,106,88,46,44,27,23,21,6377,-4907,-13157,-5531,1746,661,-1016,27,54,5
283,26,103,88,48,43,26,23,21,6379,-4902,-13160,-5528,1745,668,-1019,34,21,-6
298,27,99,81,48,40,25,22,20,6378,-4900,-13162,-5525,1732,660,-1015,19,6,-2
321,26,74,92,46,39,27,27,22,6374,-4901,-13165,-5522,1742,644,-1016,0,-19,-5
343,26,81,107,41,37,25,28,21,6368,-4903,-13168,-5520,1746,627,-1025,-11,-28,-15
358,26,73,94,32,31,24,26,23,6359,-4905,-13171,-5521,1726,640,-1023,-24,-33,-15
381,28,74,92,29,30,26,27,25,6352,-4910,-13173,-5520,1719,631,-1004,-20,-42,-3
403,32,69,111,25,33,28,29,28,6345,-4915,-13176,-5516,1711,618,-978,-10,-54,6
418,29,73,104,24,33,26,26,28,6341,-4919,-13178,-5513,1727,630,-984,0,-37,4
441,29,61,89,22,31,27,24,27,6341,-4919,-13177,-5513,1737,642,-997,-2,-11,5
463,32,62,89,22,31,26,21,28,6342,-4919,-13177,-5513,1749,644,-984,-1,-5,-1
478,28,65,83,22,29,23,22,26,6342,-4919,-13177,-5513,1750,640,-999,7,2,-13
501,25,85,53,22,27,21,22,24,6342,-4919,-13177,-5513,1743,653,-1005,-6,-10,-4
523,23,96,89,24,26,22,23,24,6339,-4922,-13177,-5514,1738,648,-1000,-14,-17,3
538,24,103,99,24,28,22,23,25,6337,-4925,-13177,-5514,1758,645,-987,-13,-25,3
561,23,110,108,28,33,24,26,23,6336,-4927,-13176,-5517,1755,657,-998,-19,-12,4
583,24,110,118,29,36,23,26,27,6336,-4927,-13176,-5517,1741,646,-992,-8,-9,-8
598,23,96,118,30,38,26,26,26,6336,-4927,-13176,-5517,1729,638,-991,-9,6,-13
621,27,93,90,28,36,26,25,24,6336,-4927,-13176,-5517,1721,647,-986,-12,-3,-10
643,28,87,80,31,36,27,25,26,6336,-4927,-13175,-5517,1749,653,-993,-13,4,-5
658,27,84,85,27,35,27,24,27,6337,-4927,-13175,-5517,1742,634,-979,-7,-2,3
681,26,91,102,30,36,30,24,22,6337,-4927,-13175,-5517,1727,637,-974,-1,-6,-5
703,30,91,114,32,38,28,22,26,6339,-4926,-13174,-5519,1714,655,-978,2,16,1
718,27,79,113,32,38,27,22,26,6344,-4924,-13172,-5519,1722,648,-976,12,24,2
741,27,78,113,29,36,24,22,26,6349,-4920,-13171,-5519,1742,647,-985,11,23,-6
763,27,73,100,29,36,25,22,26,6351,-4916,-13171,-5519,1731,653,-990,16,19,-16
778,29,91,75,27,39,22,24,27,6354,-4911,-13172,-5519,1722,641,-996,15,20,-16
801,24,92,63,24,38,24,23,25,6354,-4911,-13172,-5518,1725,638,-992,-6,13,-8
823,24,92,70,23,37,23,23,26,6354,-4912,-13172,-5518,1740,646,-1001,-16,4,-4
846,25,94,82,26,37,25,23,23,6354,-4912,-13172,-5518,1748,653,-993,-8,0,4
861,23,96,92,31,36,24,22,22,6354,-4911,-13172,-5519,1753,662,-993,-8,-15,-2
883,23,76,93,32,29,26,22,22,6354,-4911,-13172,-5519,1742,677,-982,-6,-8,7
898,22,70,84,32,25,23,21,21,6354,-4911,-13172,-5520,1745,670,-981,-6,-9,-1
921,21,75,80,32,27,26,20,20,6351,-4907,-13173,-5522,1730,669,-980,2,-9,-21
943,21,71,68,30,27,26,20,25,6349,-4902,-13175,-5524,1729,662,-981,7,-6,-28
966,20,78,64,31,22,27,23,26,6348,-4900,-13177,-5524,1724,641,-976,6,-12,-20
981,18,86,71,28,23,25,22,26,6348,-4900,-13177,-5524,1715,648,-977,13,-1,-14
1003,18,96,83,31,24,27,23,26,6350,-4897,-13177,-5523,1699,643,-989,11,18,-3
1026,27,103,97,33,28,25,23,27,6353,-4897,-13176,-5523,1714,639,-990,4,20,3
1041,26,108,97,35,32,24,27,22,6357,-4893,-13177,-5519,1714,641,-996,30,24,-6
1063,26,100,93,30,31,23,23,19,6359,-4890,-13179,-5516,1738,636,-1013,17,13,-11
1086,26,90,105,34,31,23,23,21,6359,-4890,-13179,-5516,1736,651,-1007,7,-14,-14
1101,27,94,105,33,37,24,29,18,6354,-4890,-13182,-5513,1744,662,-1019,8,-21,-5
1123,20,84,97,32,35,23,28,17,6349,-4893,-13183,-5513,1746,661,-1008,-11,-29,5
1146,19,79,98,33,31,22,23,18,6343,-4896,-13185,-5513,1750,658,-990,-12,-49,-2
1161,25,96,129,38,32,26,26,19,6334,-4896,-13189,-5514,1739,668,-988,-5,-54,-20
1183,28,97,126,38,35,29,28,18,6325,-4895,-13194,-5513,1748,663,-1001,2,-55,-27
1206,28,92,129,38,29,27,24,20,6318,-4895,-13197,-5515,1716,651,-983,-14,-38,-26
1221,28,89,132,37,26,28,25,22,6316,-4894,-13198,-5516,1731,648,-987,-2,-19,-15
1243,32,99,133,34,26,28,26,22,6316,-4894,-13198,-5516,1714,643,-985,8,-14,-16
1266,28,86,116,34,37,28,24,21,6313,-4894,-13200,-5514,1697,641,-987,6,-17,-8
1281,24,82,98,39,46,32,24,22,6312,-4894,-13201,-5514,1715,644,-976,1,-18,-3
1311,22,72,91,38,46,31,24,22,6312,-4894,-13200,-5514,1739,648,-990,8,-10,9
1326,22,70,92,39,47,31,27,22,6316,-4896,-13198,-5513,1759,668,-990,9,4,19
1341,16,57,97,40,49,32,26,22,6322,-4895,-13197,-5511,1747,663,-1005,19,26,16
1363,16,52,80,35,41,30,27,22,6327,-4891,-13196,-5510,1733,656,-1036,13,40,-5
1386,17,54,91,26,27,23,24,19,6327,-4888,-13197,-5510,1726,650,-1031,5,21,-17
1400,16,57,89,27,28,27,23,20,6323,-4887,-13200,-5509,1724,643,-1043,-6,-3,-20
1423,16,62,82,26,33,26,22,18,6316,-4890,-13202,-5510,1742,633,-1038,-31,-32,-14
1446,18,66,78,32,31,27,21,18,6306,-4897,-13204,-5510,1746,637,-1031,-37,-53,-4
1460,17,63,81,40,39,30,20,20,6299,-4904,-13204,-5511,1751,633,-1024,-41,-43,0
1483,16,60,66,42,41,32,20,23,6298,-4911,-13200,-5516,1806,630,-1037,-60,-7,0
1505,21,58,62,58,66,42,35,24,6318,-4917,-13182,-5532,1856,641,-1042,-47,90,7
1528,24,60,72,60,72,43,35,25,6341,-4914,-13169,-5538,1834,632,-1053,-20,145,12
1544,28,52,78,60,74,43,36,26,6367,-4903,-13158,-5545,1801,653,-1055,2,192,-4
1565,29,57,79,55,73,41,39,27,6383,-4887,-13151,-5556,1748,658,-1042,-13,160,-59
1588,30,57,78,56,76,44,40,25,6389,-4868,-13149,-5573,1745,664,-1045,-40,123,-105
1604,28,56,77,64,80,46,34,25,6397,-4852,-13141,-5595,1788,646,-993,-74,121,-111
1625,25,46,65,68,84,51,34,23,6413,-4837,-13128,-5619,1803,643,-994,-84,166,-88
1648,29,51,54,79,112,61,36,27,6438,-4827,-13112,-5637,1779,615,-981,-67,201,-43
1664,43,81,54,84,137,62,33,25,6468,-4815,-13094,-5654,1754,650,-983,-48,241,-14
1685,45,83,55,84,139,61,33,24,6489,-4802,-13082,-5670,1707,653,-961,-38,191,-30
1708,45,85,57,72,129,56,30,23,6503,-4783,-13073,-5691,1692,675,-924,-45,163,-84
1738,47,85,57,65,127,53,34,23,6510,-4764,-13065,-5716,1696,692,-941,-76,149,-97
1745,51,101,52,50,104,43,32,20,6511,-4750,-13058,-5742,1722,705,-915,-94,95,-95
1769,40,76,60,44,66,41,32,22,6507,-4740,-13054,-5766,1714,707,-884,-91,42,-83
1784,38,75,65,51,59,41,31,22,6501,-4731,-13049,-5790,1721,723,-870,-92,31,-85
1805,38,74,64,48,57,37,28,22,6493,-4717,-13046,-5817,1738,754,-872,-90,26,-107
1828,36,76,67,56,69,37,23,26,6485,-4702,-13044,-5843,1745,746,-843,-80,10,-127
1844,23,59,72,64,80,47,31,28,6488,-4683,-13038,-5869,1748,746,-863,-69,92,-113
1865,23,60,59,73,92,53,38,32,6491,-4668,-13032,-5890,1712,724,-876,-64,88,-87
1888,23,60,56,70,95,54,38,33,6495,-4656,-13026,-5910,1716,731,-868,-65,81,-74
1904,26,64,62,76,97,55,43,34,6497,-4643,-13021,-5929,1709,738,-835,-48,65,-78
1925,26,65,64,77,92,52,43,34,6497,-4631,-13017,-5946,1706,753,-847,-51,53,-71
1948,27,66,63,78,87,45,39,31,6496,-4622,-13013,-5963,1690,751,-840,-56,41,-58
1972,32,71,75,72,92,45,35,29,6497,-4616,-13007,-5978,1674,737,-815,-51,41,-39
1985,31,84,88,73,103,49,38,31,6501,-4611,-13003,-5987,1680,731,-825,-26,46,-19
2008,32,97,91,67,106,49,32,31,6508,-4602,-12999,-5996,1659,731,-820,-11,66,-28
2024,35,116,105,67,111,60,36,31,6518,-4592,-12993,-6005,1664,743,-825,-8,94,-25
2045,34,112,103,67,108,63,39,33,6533,-4589,-12984,-6011,1697,741,-822,-5,91,24
2068,32,126,104,72,100,59,38,33,6543,-4585,-12977,-6017,1665,785,-810,1,74,37
2084,31,133,95,71,90,58,35,31,6555,-4578,-12972,-6021,1664,774,-799,22,77,20
2113,29,125,87,72,82,55,34,29,6563,-4569,-12970,-6023,1663,761,-825,29,69,-2
2128,24,109,65,70,71,47,29,27,6566,-4564,-12970,-6023,1698,767,-822,26,23,4
2144,24,117,70,70,67,39,23,23,6568,-4563,-12971,-6021,1726,781,-836,27,3,24
2165,24,107,60,65,60,39,22,23,6569,-4567,-12972,-6014,1709,779,-836,34,-20,55
2188,24,91,61,68,52,32,23,22,6566,-4570,-12975,-6007,1688,784,-841,36,-26,50
2204,28,94,85,72,56,35,24,22,6557,-4571,-12983,-6001,1670,789,-857,39,-58,24
2225,30,99,94,68,51,31,21,22,6537,-4575,-12996,-5990,1674,765,-845,42,-131,3
2248,29,89,90,57,50,30,22,24,6506,-4582,-13017,-5975,1674,761,-867,52,-213,-8
2264,26,98,98,52,47,27,24,23,6464,-4591,-13042,-5957,1679,752,-878,50,-281,-32
2287,29,110,102,43,45,27,24,22,6419,-4600,-13070,-5939,1663,733,-872,45,-301,-53
2308,27,104,85,31,37,24,23,23,6368,-4606,-13100,-5923,1657,733,-899,39,-324,-85
2330,26,97,74,27,36,20,25,22,6321,-4612,-13127,-5909,1672,719,-884,31,-310,-85
2354,26,98,73,27,33,25,25,21,6281,-4623,-13149,-5892,1673,716,-907,27,-280,-38
2368,25,77,59,25,31,23,21,20,6250,-4641,-13167,-5873,1670,720,-909,33,-254,19
2390,23,58,42,24,28,26,25,21,6227,-4659,-13179,-5855,1689,732,-913,33,-208,47
2407,24,58,44,23,25,25,26,23,6215,-4671,-13188,-5839,1719,732,-930,47,-138,42
2428,23,67,67,25,23,26,25,22,6214,-4674,-13197,-5817,1732,712,-951,106,-80,25
2444,23,63,69,26,24,23,26,21,6220,-4668,-13208,-5791,1727,733,-979,156,-28,15
2465,30,67,73,28,26,23,28,21,6230,-4663,-13216,-5764,1749,715,-987,153,-9,25
2488,31,74,78,30,24,22,27,22,6244,-4665,-13221,-5737,1737,704,-987,141,1,69
2504,28,74,83,30,28,25,27,21,6255,-4678,-13223,-5710,1730,694,-995,104,-21,116
2525,30,71,67,29,29,24,27,23,6260,-4698,-13223,-5687,1744,712,-1014,64,-45,143
2548,30,81,82,29,30,25,27,23,6268,-4723,-13220,-5664,1766,706,-999,53,-50,167
2564,27,78,116,29,30,25,28,26,6277,-4748,-13217,-5640,1774,700,-992,59,-54,179
2585,26,68,118,30,32,25,27,25,6286,-4770,-13214,-5619,1793,691,-1023,53,-32,153
2608,26,66,114,30,28,21,25,25,6291,-4788,-13212,-5602,1770,692,-1025,35,-33,120
2624,30,68,116,31,30,22,28,25,6295,-4800,-13213,-5586,1761,690,-1029,49,-25,95
2647,29,56,104,30,29,20,25,25,6297,-4811,-13215,-5569,1757,674,-1027,54,-39,75
2668,26,54,69,29,31,21,22,24,6296,-4823,-13217,-5555,1754,650,-1027,26,-56,65
2684,28,64,73,30,30,19,23,22,6296,-4836,-13216,-5547,1770,657,-1012,5,-39,62
2707,32,67,73,30,30,21,22,22,6300,-4847,-13212,-5541,1776,649,-1014,-6,-12,58
2728,35,64,89,30,26,24,19,23,6312,-4852,-13208,-5532,1806,640,-1010,32,21,47
2744,37,61,90,30,26,24,24,26,6325,-4849,-13207,-5524,1804,635,-1035,46,48,3
2767,37,69,88,30,23,23,24,26,6335,-4842,-13207,-5518,1788,638,-1069,43,65,-19
2788,39,78,93,33,25,27,30,27,6342,-4835,-13208,-5513,1761,633,-1057,32,56,-25
2810,35,82,93,33,26,29,34,26,6347,-4831,-13210,-5507,1754,614,-1055,27,33,-25
2827,27,80,75,31,26,27,34,24,6345,-4831,-13212,-5504,1755,618,-1057,-8,-1,-23
2848,26,83,79,32,30,27,32,24,6341,-4836,-13213,-5504,1759,621,-1039,-32,-17,-12
2870,28,85,79,32,29,28,31,23,6338,-4842,-13211,-5507,1769,621,-1001,-46,-27,-4
2887,23,70,63,26,26,24,24,23,6336,-4845,-13209,-5510,1772,643,-1010,-34,-11,-6
2908,24,65,68,26,26,21,21,23,6339,-4848,-13204,-5515,1773,641,-1004,-39,17,-2
2930,22,69,70,26,27,21,21,23,6343,-4849,-13198,-5523,1762,644,-991,-46,35,-8
2947,21,88,65,28,22,19,23,20,6350,-4847,-13191,-5534,1764,655,-992,-49,58,-14
6,Repeat 10,,,,,,,,,,,,,,,,,
29,22,102,56,26,22,17,22,20,6369,-4835,-13178,-5554,1774,670,-1001,-26,86,-35
45,22,103,49,27,23,19,22,21,6376,-4824,-13174,-5565,1768,686,-1018,-23,87,-47
66,30,121,44,27,22,19,23,22,6381,-4814,-13169,-5580,1767,702,-1001,-41,77,-51
89,34,113,45,24,20,20,22,23,6384,-4804,-13165,-5594,1761,691,-997,-46,68,-62
105,34,110,51,22,20,21,22,22,6384,-4794,-13161,-5612,1762,692,-1002,-68,69,-75
126,37,110,57,24,21,23,24,24,6386,-4782,-13156,-5632,1758,690,-972,-70,71,-82
149,37,118,57,24,20,22,22,25,6392,-4771,-13150,-5649,1756,670,-959,-57,83,-77
165,30,98,56,23,22,21,23,24,6399,-4759,-13144,-5664,1744,682,-947,-44,83,-67
186,27,93,52,22,24,21,22,23,6408,-4747,-13139,-5678,1739,694,-942,-26,93,-59
209,26,97,47,25,23,20,21,25,6418,-4732,-13133,-5692,1721,705,-937,-24,107,-61
225,22,79,37,23,21,18,21,23,6429,-4717,-13126,-5708,1711,688,-927,-34,118,-68
246,22,68,42,21,23,17,21,21,6439,-4702,-13119,-5727,1697,687,-927,-49,126,-78
269,23,67,42,22,20,18,19,21,6447,-4685,-13112,-5747,1702,699,-919,-52,119,-87
293,22,69,54,22,20,18,20,21,6455,-4668,-13107,-5763,1689,695,-900,-30,107,-83
306,30,81,56,19,21,19,21,22,6463,-4654,-13102,-5775,1692,717,-906,-14,96,-56
329,31,88,58,22,21,21,22,21,6468,-4642,-13100,-5785,1699,721,-899,-11,66,-54
345,32,96,61,21,21,21,21,22,6468,-4629,-13100,-5794,1703,731,-899,-4,41,-60
366,32,101,63,20,20,21,19,21,6466,-4618,-13102,-5801,1695,731,-905,-3,24,-58
396,33,103,56,20,22,20,20,22,6460,-4611,-13105,-5808,1691,740,-913,-14,3,-48
405,34,96,52,20,23,21,21,22,6450,-4610,-13107,-5816,1697,751,-921,-38,-26,-28
426,32,94,55,18,25,20,22,23,6437,-4613,-13109,-5822,1695,763,-907,-38,-54,-2
449,32,81,51,19,24,20,24,22,6422,-4620,-13111,-5827,1712,767,-895,-47,-83,6
466,33,87,54,19,25,20,24,22,6406,-4629,-13114,-5832,1729,779,-883,-42,-108,18
486,32,80,58,22,26,20,25,23,6393,-4638,-13116,-5835,1727,776,-871,-28,-103,24
509,21,73,58,21,26,18,24,19,6383,-4645,-13117,-5838,1722,778,-869,-23,-81,28
525,22,67,54,18,28,20,22,18,6377,-4650,-13117,-5840,1712,774,-862,-8,-60,26
546,24,88,64,19,28,20,20,17,6372,-4651,-13118,-5842,1702,750,-852,3,-50,2
570,27,83,70,20,27,19,18,18,6372,-4648,-13120,-5841,1686,724,-872,26,-17,-12
585,28,83,77,17,26,19,17,18,6373,-4645,-13121,-5839,1695,716,-899,18,2,-8
608,30,98,79,22,25,21,19,19,6377,-4642,-13122,-5835,1688,709,-922,29,19,-2
629,35,104,82,25,23,18,19,19,6382,-4638,-13125,-5825,1691,700,-951,57,27,0
645,33,88,71,27,26,19,19,21,6384,-4636,-13130,-5814,1695,682,-963,48,8,-5
674,31,80,69,30,28,21,22,21,6382,-4638,-13135,-5803,1704,686,-957,36,-28,6
689,30,79,56,32,26,24,24,19,6377,-4647,-13141,-5789,1704,673,-954,32,-59,38
705,30,72,66,31,24,24,24,18,6372,-4661,-13145,-5773,1726,679,-953,26,-79,58
726,27,70,71,33,25,25,22,23,6370,-4675,-13148,-5758,1715,686,-954,34,-60,78
749,26,73,73,33,24,26,24,22,6371,-4689,-13149,-5742,1730,679,-930,36,-59,82
765,23,70,68,29,24,24,23,24,6373,-4699,-13151,-5728,1751,700,-952,50,-46,67
786,26,72,73,31,24,24,21,25,6372,-4705,-13155,-5714,1758,720,-988,51,-37,48
809,28,61,69,29,24,24,20,25,6369,-4712,-13160,-5702,1741,729,-971,45,-56,52
831,26,53,71,24,27,23,21,22,6360,-4721,-13166,-5689,1731,720,-971,40,-90,48
848,26,50,73,23,28,22,18,24,6348,-4730,-13174,-5677,1736,743,-937,47,-120,53
869,32,73,85,23,29,23,18,23,6337,-4738,-13183,-5662,1765,754,-895,77,-155,47
891,30,83,79,20,31,20,19,22,6327,-4741,-13194,-5645,1795,740,-898,102,-155,26
906,29,79,72,22,30,18,21,24,6321,-4738,-13206,-5627,1820,735,-936,116,-122,-9
930,28,79,71,22,26,18,22,23,6316,-4725,-13219,-5612,1783,707,-978,121,-68,-61
951,31,85,69,22,25,19,21,21,6312,-4707,-13231,-5602,1717,682,-1040,85,-2,-94
966,25,99,86,24,23,18,20,24,6308,-4693,-13241,-5596,1674,654,-1080,40,30,-85
989,26,99,98,26,21,19,17,25,6304,-4686,-13247,-5591,1654,644,-1076,18,30,-49
1011,24,102,99,25,22,19,19,22,6293,-4688,-13255,-5583,1685,655,-1094,-2,-31,-19
1026,27,113,96,28,23,18,19,21,6271,-4698,-13264,-5577,1639,666,-1067,-31,-101,3
1049,25,109,99,26,24,16,18,22,6247,-4717,-13272,-5571,1633,670,-1059,-57,-126,38
1071,25,82,73,25,27,16,19,18,6227,-4736,-13277,-5565,1664,669,-1022,-47,-132,49
1086,25,73,63,22,29,19,21,17,6210,-4751,-13280,-5565,1704,687,-999,-52,-119,26
1109,28,78,63,23,30,20,20,18,6198,-4762,-13280,-5567,1720,682,-963,-46,-102,18
1131,25,69,75,20,32,20,20,20,6193,-4772,-13280,-5565,1730,668,-946,-14,-84,23
1146,27,72,76,26,30,20,20,21,6194,-4780,-13279,-5560,1725,684,-963,16,-44,41
1169,25,71,76,27,27,21,20,22,6200,-4785,-13278,-5551,1737,692,-989,40,-16,51
1191,27,74,71,27,25,20,19,25,6207,-4787,-13277,-5544,1729,693,-1013,37,7,36
1208,24,65,74,27,24,19,18,24,6211,-4786,-13277,-5539,1723,695,-1012,40,6,13
1229,26,58,59,28,22,18,21,24,6209,-4783,-13281,-5536,1699,696,-1035,22,-9,-11
1251,22,64,61,25,24,21,23,23,6203,-4785,-13284,-5532,1687,668,-1040,1,-31,-4
1268,23,87,79,24,24,20,23,23,6197,-4792,-13286,-5530,1689,657,-1035,-22,-38,13
1289,26,84,81,25,23,22,23,22,6192,-4803,-13284,-5530,1706,672,-1038,-40,-34,40
1311,26,89,75,26,27,25,25,23,6188,-4816,-13280,-5532,1730,668,-1018,-53,-41,40
