time,emg0,emg1,emg2,emg3,emg4,emg5,emg6,emg7,quat0,quat1,quat2,quat3,acc0,acc1,acc2,gyro0,gyro2,gyro2
70908,28,20,20,22,26,32,22,22,2991,-6391,-11208,-9646,1361,1267,-597,-81,-174,68
70925,27,17,21,21,27,33,23,21,2969,-6429,-11207,-9629,1398,1257,-591,-76,-202,74
70946,26,17,20,20,26,31,24,22,2952,-6469,-11203,-9612,1434,1276,-573,-59,-204,100
70968,25,16,20,21,29,30,27,22,2940,-6509,-11199,-9594,1456,1288,-564,-38,-189,121
70985,24,16,19,22,28,33,24,22,2934,-6546,-11191,-9579,1493,1320,-533,-30,-172,131
71006,23,16,18,22,32,31,26,21,2927,-6578,-11184,-9568,1508,1369,-524,-23,-153,122
71028,21,16,19,24,35,32,29,18,2920,-6605,-11175,-9562,1537,1415,-502,-36,-142,110
71045,18,20,19,26,36,34,29,18,2911,-6625,-11164,-9564,1541,1444,-508,-60,-99,86
71066,18,19,19,22,34,32,27,16,2905,-6636,-11153,-9570,1512,1436,-506,-63,-53,62
71088,19,24,24,25,34,30,27,17,2901,-6638,-11146,-9579,1489,1418,-474,-40,-14,23
71105,20,27,25,26,29,28,34,18,2898,-6627,-11144,-9589,1462,1393,-465,-15,26,-34
71126,23,30,27,26,23,26,31,20,2894,-6606,-11149,-9600,1433,1356,-452,11,55,-99
71148,23,29,27,26,24,23,31,22,2891,-6578,-11159,-9608,1379,1303,-438,41,71,-137
71165,23,28,25,27,27,25,31,21,2895,-6550,-11172,-9611,1359,1241,-454,74,88,-132
71186,23,23,21,25,23,23,32,25,2909,-6527,-11185,-9607,1384,1222,-469,110,103,-92
71208,21,23,21,25,23,22,23,28,2932,-6507,-11197,-9599,1445,1237,-510,128,121,-59
71225,17,20,20,22,23,21,22,28,2960,-6488,-11208,-9590,1478,1276,-543,128,146,-35
71246,15,20,22,21,23,20,21,26,2988,-6471,-11219,-9581,1500,1307,-594,114,158,-17
71268,12,21,24,21,21,19,20,29,3011,-6458,-11228,-9573,1501,1337,-620,86,143,-4
71293,13,22,23,19,21,18,19,26,3024,-6450,-11234,-9566,1497,1376,-634,41,92,6
71306,15,22,26,19,25,28,24,22,3023,-6452,-11236,-9563,1485,1402,-610,-13,14,17
71328,19,25,24,21,27,32,24,22,3011,-6461,-11232,-9565,1491,1414,-600,-75,-36,18
71345,21,25,23,21,26,32,24,24,2992,-6474,-11223,-9573,1501,1387,-571,-128,-74,-2
71366,25,24,24,21,26,33,24,22,2967,-6483,-11214,-9585,1497,1347,-532,-151,-84,-49
71388,24,25,23,26,30,36,25,24,2942,-6484,-11205,-9602,1500,1316,-516,-158,-59,-107
71405,23,25,20,24,29,32,23,24,2919,-6478,-11198,-9622,1473,1265,-487,-154,-28,-148
71426,21,20,20,23,36,29,25,24,2901,-6468,-11192,-9641,1439,1247,-488,-130,10,-146
71448,19,20,22,24,35,30,26,21,2892,-6459,-11186,-9656,1446,1247,-494,-100,33,-110
71465,16,20,21,25,35,29,25,24,2891,-6451,-11179,-9670,1486,1284,-503,-89,55,-80
71486,15,18,22,19,32,27,23,22,2888,-6443,-11171,-9686,1506,1354,-504,-90,58,-64
71510,16,19,22,20,29,24,20,25,2878,-6437,-11165,-9700,1453,1399,-515,-99,23,-50
71531,19,20,24,19,21,23,16,25,2855,-6443,-11156,-9713,1347,1377,-458,-121,-63,-11
71546,20,19,24,18,20,22,14,25,2830,-6458,-11144,-9725,1366,1385,-439,-140,-117,21
71568,23,21,24,17,17,21,15,22,2804,-6472,-11130,-9739,1417,1422,-429,-146,-117,9
71591,23,21,23,18,21,19,15,24,2781,-6478,-11116,-9757,1473,1445,-437,-152,-80,-28
71606,24,19,22,18,23,17,18,24,2757,-6474,-11105,-9779,1444,1418,-402,-136,-44,-82
71628,21,19,23,19,24,20,19,22,2737,-6463,-11099,-9798,1380,1349,-383,-98,-22,-113
71651,20,20,21,19,23,19,19,23,2722,-6447,-11100,-9812,1379,1328,-389,-51,5,-136
71666,18,19,20,23,29,22,19,23,2713,-6424,-11104,-9825,1398,1338,-390,-14,42,-150
71688,18,21,20,24,27,22,20,21,2711,-6401,-11110,-9834,1386,1336,-435,1,77,-128
71711,18,20,21,24,25,22,20,18,2712,-6385,-11114,-9839,1318,1321,-458,5,76,-67
71726,17,18,19,24,27,24,19,19,2716,-6380,-11117,-9838,1286,1327,-456,18,46,11
71748,17,19,23,24,26,26,22,18,2723,-6384,-11117,-9834,1313,1389,-468,21,16,78
71771,17,19,25,21,22,24,22,23,2726,-6397,-11115,-9827,1331,1423,-457,19,-39,115
71786,18,18,25,19,25,28,24,23,2720,-6417,-11112,-9819,1325,1441,-424,10,-110,122
71808,17,19,26,19,26,29,24,24,2709,-6440,-11107,-9812,1342,1447,-416,-13,-135,116
71831,17,20,26,20,24,28,24,25,2701,-6460,-11100,-9809,1428,1472,-399,-9,-127,98
71846,17,19,24,20,26,26,24,24,2697,-6472,-11094,-9809,1513,1503,-402,-5,-85,52
71868,17,20,22,20,25,25,23,24,2691,-6472,-11090,-9816,1530,1509,-422,-24,-36,-16
71891,17,21,22,22,26,20,23,26,2682,-6461,-11089,-9826,1492,1471,-439,-28,4,-74
71906,21,21,23,25,28,28,28,26,2672,-6445,-11095,-9833,1429,1419,-472,-18,30,-115
71928,21,23,23,23,28,28,30,24,2661,-6427,-11103,-9839,1383,1358,-491,-19,37,-133
71951,23,25,22,26,27,29,29,24,2650,-6411,-11111,-9843,1362,1306,-514,-30,40,-137
71966,24,24,21,27,28,32,31,22,2640,-6400,-11118,-9846,1369,1276,-540,-45,32,-129
71988,23,23,22,25,25,33,29,20,2631,-6397,-11119,-9849,1378,1273,-533,-72,10,-91
72011,19,22,21,22,25,26,24,19,2623,-6405,-11114,-9851,1392,1300,-532,-88,-23,-24
72026,21,21,23,23,25,24,22,19,2616,-6426,-11102,-9853,1401,1328,-487,-102,-68,53
72048,21,19,22,20,25,25,20,21,2609,-6455,-11085,-9854,1407,1359,-474,-112,-102,104
72071,22,19,26,19,26,23,16,20,2599,-6483,-11070,-9856,1415,1402,-453,-104,-121,104
72086,23,23,24,18,28,25,16,22,2588,-6505,-11056,-9859,1425,1410,-444,-95,-107,70
72108,23,23,23,17,26,24,17,21,2576,-6516,-11047,-9865,1432,1424,-441,-78,-71,16
72131,23,23,22,16,26,24,17,22,2566,-6518,-11043,-9871,1436,1421,-430,-47,-40,-25
72147,21,23,24,15,26,24,18,21,2561,-6514,-11045,-9874,1427,1414,-438,-7,-13,-46
72168,21,23,21,15,25,23,19,22,2559,-6505,-11048,-9877,1447,1419,-439,13,15,-57
72191,19,20,20,18,23,19,19,21,2561,-6493,-11053,-9878,1466,1428,-474,22,45,-70
72207,19,20,21,19,28,19,19,22,2563,-6478,-11061,-9878,1443,1461,-489,39,56,-58
72228,21,18,21,19,29,19,17,21,2565,-6467,-11071,-9874,1393,1492,-469,68,30,-22
72251,20,21,19,20,28,18,17,19,2560,-6463,-11084,-9863,1325,1501,-454,96,-32,13
72267,19,21,20,21,30,18,18,18,2549,-6463,-11098,-9850,1289,1475,-427,93,-89,7
72288,21,23,20,20,29,19,20,18,2534,-6461,-11108,-9845,1306,1409,-398,48,-83,-44
72311,24,24,20,19,24,19,20,18,2518,-6450,-11114,-9848,1261,1343,-393,2,-36,-88
72327,24,25,17,19,21,17,20,18,2514,-6436,-11116,-9857,1223,1249,-367,-9,30,-78
72348,23,23,18,18,24,16,19,21,2529,-6426,-11115,-9860,1234,1187,-360,40,78,-16
72371,24,23,18,18,21,17,18,22,2562,-6420,-11119,-9851,1264,1183,-409,120,113,49
72387,22,20,18,17,22,16,16,22,2603,-6417,-11129,-9831,1287,1250,-441,192,122,104
72408,20,17,20,19,26,17,16,26,2643,-6421,-11144,-9801,1288,1329,-470,238,73,161
72431,18,15,21,19,25,19,17,26,2674,-6436,-11158,-9767,1333,1404,-450,243,-26,194
72454,19,13,22,20,24,20,20,25,2694,-6457,-11168,-9736,1429,1526,-455,208,-85,197
72469,18,16,26,19,25,20,20,23,2703,-6471,-11178,-9713,1517,1628,-521,148,-76,136
72491,19,23,27,19,26,21,19,23,2696,-6475,-11186,-9703,1599,1662,-522,76,-90,23
72514,21,30,48,19,22,20,23,19,2672,-6465,-11204,-9695,1595,1634,-534,64,-106,-127
72530,29,43,58,20,22,21,23,21,2637,-6436,-11239,-9683,1501,1572,-510,140,-107,-269
72551,33,53,67,21,23,21,23,23,2601,-6386,-11290,-9667,1470,1532,-504,215,-71,-389
72574,38,60,73,20,21,21,24,26,2564,-6323,-11345,-9653,1508,1487,-523,221,-38,-506
72589,42,84,74,22,23,25,27,28,2524,-6234,-11410,-9646,1499,1435,-514,241,40,-666
72611,52,99,66,22,23,25,24,27,2484,-6127,-11484,-9637,1367,1324,-565,258,119,-758
72634,79,96,59,23,25,25,23,30,2458,-6021,-11549,-9632,1195,1187,-576,212,211,-682
72649,80,93,49,26,29,41,26,32,2444,-5951,-11598,-9621,987,1004,-584,149,169,-457
72671,80,91,38,27,30,47,33,45,2454,-5947,-11629,-9583,952,868,-556,187,4,-86
72694,83,68,34,28,28,47,45,80,2487,-6015,-11641,-9518,1126,969,-640,205,-182,308
72709,91,43,28,29,32,51,49,91,2524,-6151,-11623,-9443,1304,1204,-767,95,-366,690
72731,77,49,30,29,32,52,52,100,2544,-6360,-11568,-9366,1424,1385,-757,-70,-666,1042
72754,84,52,26,29,35,44,63,144,2547,-6611,-11494,-9282,1491,1484,-756,-147,-886,1234
72769,173,54,30,31,34,40,95,221,2502,-6877,-11417,-9196,1431,1537,-859,-275,-1081,1213
72791,389,73,42,36,39,48,107,244,2383,-7137,-11376,-9080,1246,1595,-900,-199,-1415,999
72814,404,95,45,40,43,57,115,258,2212,-7402,-11373,-8913,1238,1487,-1022,-8,-1858,668
72829,470,135,54,53,55,78,133,264,1956,-7616,-11419,-8731,1199,1634,-1160,28,-2101,122
72851,584,158,57,52,53,81,128,256,1642,-7768,-11495,-8561,1389,1655,-1180,-32,-2153,-411
72882,611,216,70,53,55,84,109,200,1348,-7854,-11595,-8398,1641,1403,-980,106,-1918,-718
72889,517,217,68,50,53,80,94,160,1167,-7895,-11683,-8264,1788,1297,-899,301,-1418,-757
72911,512,217,67,48,49,75,85,130,1072,-7907,-11749,-8170,1670,1147,-838,311,-881,-596
72934,451,197,58,33,33,55,53,111,1034,-7908,-11790,-8114,1454,1121,-815,256,-467,-365
72950,290,178,56,30,33,48,51,75,1027,-7911,-11806,-8090,1259,1148,-815,148,-204,-137
72971,169,103,36,28,30,40,41,44,1038,-7913,-11795,-8102,1165,1162,-862,-38,23,14
72994,119,88,27,26,27,35,34,41,1083,-7899,-11749,-8177,1246,1210,-787,-256,349,105
73010,75,63,24,25,23,26,27,30,1180,-7871,-11661,-8315,1376,1176,-668,-462,733,227
73031,104,63,25,25,28,29,29,46,1343,-7831,-11543,-8491,1495,1155,-600,-514,1111,401
73054,134,90,29,32,36,49,58,108,1540,-7776,-11439,-8647,1276,1354,-627,-268,1319,580
73070,225,113,32,35,51,57,65,140,1707,-7756,-11402,-8682,1040,1391,-849,229,891,622
73091,291,131,38,41,61,73,82,149,1770,-7720,-11474,-8607,953,1714,-1302,642,348,179
73114,322,181,63,46,67,81,93,165,1666,-7676,-11582,-8523,969,2216,-1548,383,-265,-278
73130,324,180,66,47,67,82,92,165,1492,-7648,-11672,-8455,1146,1925,-1378,75,-653,-576
73151,335,176,66,43,62,74,80,141,1320,-7621,-11725,-8436,1452,1582,-1132,-220,-680,-747
73174,285,164,66,40,52,68,75,109,1183,-7591,-11750,-8449,1522,1317,-913,-334,-533,-727
73190,220,150,64,33,41,52,56,97,1104,-7561,-11758,-8475,1525,1083,-812,-305,-293,-607
73211,193,95,40,26,30,39,37,67,1077,-7533,-11758,-8503,1404,983,-742,-203,-76,-419
73234,181,92,34,24,26,34,35,80,1098,-7515,-11760,-8513,1284,996,-783,-21,93,-188
73250,222,92,35,22,26,28,30,83,1154,-7506,-11758,-8516,1219,1081,-812,92,216,15
73271,233,90,32,20,25,30,31,95,1222,-7505,-11748,-8522,1118,1186,-833,101,283,182
73294,252,104,36,24,25,30,30,100,1275,-7517,-11735,-8522,1055,1297,-935,63,230,262
73310,249,94,36,25,27,30,30,107,1300,-7534,-11727,-8514,1051,1448,-1043,39,111,250
73331,342,124,49,27,29,34,34,114,1293,-7554,-11719,-8508,1094,1562,-1064,-32,-23,185
73354,316,130,52,29,32,43,39,115,1272,-7578,-11715,-8495,1140,1508,-1038,-32,-128,125
73370,317,141,60,32,33,42,42,115,1247,-7602,-11713,-8481,1237,1456,-1010,-35,-188,48
73391,316,133,57,30,34,43,43,114,1224,-7616,-11720,-8461,1302,1496,-1018,34,-187,-17
73414,326,139,60,29,34,43,42,113,1205,-7620,-11731,-8446,1280,1466,-981,46,-136,-63
73452,265,188,90,27,43,49,42,116,1185,-7618,-11739,-8439,1236,1415,-974,1,-97,-87
73454,252,195,102,31,45,43,44,106,1155,-7610,-11748,-8438,1208,1401,-997,-59,-94,-142
73474,244,196,98,27,46,50,43,97,1113,-7587,-11763,-8443,1237,1468,-997,-77,-89,-249
73496,224,209,105,27,46,50,45,93,1081,-7548,-11782,-8455,1290,1455,-927,-44,-33,-331
73511,197,209,107,29,45,48,44,86,1061,-7501,-11799,-8477,1310,1437,-868,-40,49,-341
73534,138,145,77,30,37,41,41,41,1061,-7451,-11812,-8502,1309,1411,-809,0,131,-304
73556,107,124,58,28,34,41,34,31,1080,-7396,-11816,-8543,1316,1387,-748,-31,245,-261
73571,88,105,57,28,41,37,28,26,1123,-7341,-11802,-8603,1322,1322,-679,-92,381,-177
73594,80,72,41,27,50,46,28,20,1210,-7291,-11762,-8688,1379,1271,-675,-185,617,-2
73616,67,58,31,26,54,49,31,22,1358,-7250,-11682,-8809,1446,1158,-634,-318,935,250
73631,46,54,31,30,90,63,36,24,1577,-7212,-11569,-8951,1458,1040,-593,-355,1279,525
73654,37,39,26,31,166,109,49,31,1843,-7165,-11442,-9099,1448,978,-526,-295,1605,814
73676,52,42,25,37,276,177,73,37,2187,-7110,-11297,-9247,1521,1085,-535,-152,1951,1079
73691,120,43,34,52,333,213,89,47,2613,-7029,-11131,-9398,1709,1227,-548,-17,2377,1292
73714,181,45,34,52,343,218,91,51,3070,-6922,-10964,-9535,1692,1405,-569,137,2556,1335
73736,184,58,39,49,336,215,90,50,3483,-6794,-10845,-9620,1557,1625,-648,399,2310,1099
73751,196,109,41,49,306,199,84,46,3812,-6636,-10803,-9653,1288,1821,-835,675,1919,648
73774,245,136,49,46,221,146,66,42,3954,-6447,-10866,-9653,1108,1948,-936,679,1348,111
73796,242,139,53,29,120,83,42,33,3953,-6278,-10975,-9642,1102,1843,-1015,489,700,-432
73812,213,140,55,28,86,66,37,25,3836,-6138,-11092,-9646,1170,1605,-875,186,109,-900
73834,217,143,52,31,82,61,36,25,3666,-6039,-11174,-9680,1354,1321,-701,-185,-219,-1087
73856,208,110,51,26,83,49,31,23,3504,-5980,-11226,-9716,1513,1105,-598,-315,-345,-1019
73871,145,86,51,28,62,36,28,23,3382,-5960,-11275,-9714,1569,941,-551,-147,-432,-782
73894,104,80,43,39,81,51,29,21,3311,-5975,-11318,-9679,1505,966,-407,85,-467,-406
73916,78,80,44,41,92,63,31,27,3290,-6015,-11327,-9652,1545,1073,-406,27,-315,-48
73932,60,64,45,39,91,64,29,26,3301,-6078,-11291,-9650,1537,1143,-340,-140,-184,243
73953,58,59,49,41,92,67,30,27,3331,-6148,-11237,-9659,1510,1184,-340,-203,-87,396
73976,56,35,39,38,92,66,29,26,3368,-6217,-11174,-9674,1481,1230,-327,-238,-29,469
73991,58,30,37,40,134,93,39,27,3414,-6280,-11103,-9701,1483,1237,-302,-276,56,486
74013,58,27,33,37,146,100,41,21,3472,-6333,-11008,-9753,1603,1213,-212,-390,177,475
74037,52,29,29,40,149,102,43,22,3544,-6371,-10916,-9805,1710,1213,-279,-362,301,430
74051,44,29,23,39,147,101,43,22,3633,-6397,-10853,-9826,1669,1321,-345,-108,342,491
74073,32,28,21,39,144,101,43,23,3724,-6408,-10816,-9826,1472,1396,-387,64,366,521
74096,25,28,20,27,84,66,32,23,3786,-6400,-10797,-9828,1328,1437,-479,51,362,382
74111,24,29,20,30,47,44,26,24,3810,-6384,-10792,-9835,1248,1388,-523,-18,267,194
74133,28,26,21,26,38,40,26,25,3810,-6369,-10795,-9841,1298,1324,-533,-43,164,60
74156,28,24,21,27,40,34,28,24,3804,-6362,-10802,-9840,1451,1333,-551,-40,88,20
74171,29,23,21,27,43,36,27,25,3801,-6367,-10809,-9831,1574,1346,-535,-5,18,43
74193,28,20,19,26,44,35,27,24,3792,-6386,-10819,-9811,1624,1355,-524,14,-86,77
74216,27,14,19,23,44,32,25,22,3770,-6419,-10826,-9790,1645,1340,-482,-15,-207,76
74231,23,17,20,25,45,33,23,21,3734,-6457,-10832,-9772,1660,1348,-457,-60,-281,44
74253,23,19,20,30,49,44,31,20,3688,-6498,-10833,-9761,1645,1314,-417,-111,-331,17
74276,22,22,22,31,49,56,41,19,3639,-6536,-10830,-9757,1615,1286,-372,-142,-325,-8
74291,23,24,22,35,48,57,41,20,3592,-6570,-10825,-9757,1584,1259,-334,-143,-309,-24
74313,23,26,22,39,48,58,44,19,3548,-6597,-10822,-9758,1515,1223,-299,-114,-287,-34
74336,21,26,24,39,48,59,45,19,3515,-6615,-10821,-9760,1500,1212,-284,-72,-221,-39
74358,20,25,24,34,48,52,38,20,3490,-6622,-10822,-9763,1501,1221,-295,-40,-155,-60
74373,19,23,23,34,49,43,30,21,3470,-6621,-10825,-9767,1501,1222,-302,-17,-99,-80
74396,18,24,24,31,50,41,32,21,3458,-6614,-10829,-9772,1498,1239,-327,3,-44,-73
74418,15,23,22,26,49,40,28,22,3453,-6605,-10832,-9776,1518,1244,-365,7,0,-55
74433,18,22,20,25,51,40,27,22,3454,-6599,-10835,-9777,1512,1228,-395,12,23,-29
74456,17,22,21,25,44,38,26,22,3458,-6596,-10837,-9775,1513,1228,-416,18,24,-6
74478,16,22,24,25,42,33,23,22,3457,-6596,-10837,-9775,1525,1236,-431,9,4,10
74493,21,25,28,22,38,34,21,20,3457,-6602,-10838,-9771,1530,1253,-443,-5,-13,22
74516,21,24,30,24,40,31,19,22,3451,-6610,-10838,-9766,1511,1258,-440,-15,-44,32
74538,19,24,30,28,40,29,20,22,3443,-6624,-10837,-9762,1527,1254,-435,-32,-72,35
74561,20,25,31,32,42,33,23,21,3431,-6639,-10833,-9760,1531,1235,-409,-51,-94,20
74576,25,25,29,30,39,31,22,21,3420,-6652,-10827,-9761,1556,1234,-410,-67,-78,12
74598,22,22,27,32,42,32,21,22,3414,-6663,-10820,-9764,1576,1240,-388,-57,-59,18
74613,21,20,28,32,45,32,21,25,3411,-6673,-10814,-9766,1566,1252,-385,-35,-49,27
74636,22,21,27,28,41,29,20,25,3414,-6678,-10808,-9767,1570,1254,-383,-16,-11,37
74658,22,23,28,26,42,28,19,23,3421,-6683,-10803,-9767,1571,1239,-383,2,0,38
74673,18,24,27,29,45,32,21,25,3426,-6685,-10801,-9766,1537,1234,-388,12,4,25
74696,18,25,24,28,44,30,21,24,3434,-6684,-10799,-9765,1543,1221,-391,20,24,24
74718,18,27,21,26,38,35,24,21,3447,-6680,-10797,-9765,1567,1247,-378,38,48,26
74733,18,25,22,28,39,37,25,21,3460,-6674,-10798,-9764,1572,1255,-401,45,60,19
74764,18,23,17,27,36,35,24,23,3472,-6668,-10800,-9762,1565,1252,-415,49,57,9
74778,18,22,19,24,45,33,23,20,3481,-6662,-10804,-9758,1561,1247,-437,45,50,1
74793,18,22,20,23,50,33,24,25,3487,-6656,-10805,-9759,1560,1248,-405,20,42,-7
74816,18,21,21,24,52,32,24,24,3491,-6651,-10804,-9763,1555,1232,-401,-3,38,-8
74839,18,23,19,24,51,29,22,24,3494,-6650,-10802,-9765,1566,1223,-417,-12,29,-7
74853,17,22,20,25,51,30,23,23,3499,-6648,-10800,-9767,1546,1210,-388,-2,24,-1
74876,19,21,22,29,53,35,24,23,3505,-6647,-10798,-9767,1539,1205,-390,8,24,10
74899,19,22,36,29,58,37,26,19,3512,-6646,-10795,-9768,1561,1223,-388,7,28,12
74914,19,23,58,29,60,43,28,18,3518,-6643,-10792,-9772,1557,1240,-375,0,36,14
74936,19,35,119,33,63,47,30,21,3528,-6637,-10785,-9780,1561,1246,-363,-9,67,15
74967,20,93,257,53,85,59,34,26,3561,-6616,-10770,-9799,1604,1260,-311,5,214,40
74974,26,110,305,68,93,59,35,26,3637,-6562,-10725,-9856,1667,1362,-408,-122,655,108
74996,34,129,322,72,88,60,36,29,3705,-6489,-10683,-9924,1556,1396,-154,-76,622,40
75018,34,152,324,74,89,59,34,31,3744,-6384,-10698,-9961,1729,1427,-247,174,518,-308
75034,36,152,320,77,93,56,32,28,3778,-6211,-10739,-10013,1739,1386,-305,253,761,-687
75056,35,166,325,85,99,63,36,26,3831,-6002,-10764,-10094,1662,1350,-203,195,1010,-765
75078,30,179,295,82,92,62,34,25,3903,-5778,-10783,-10177,1779,1380,-245,199,1177,-789
75093,27,188,289,82,124,68,32,22,3983,-5531,-10799,-10266,1784,1414,-299,183,1329,-854
75116,32,280,309,85,129,67,36,25,4053,-5281,-10825,-10342,1599,1323,-272,239,1281,-887
75138,32,319,368,95,147,68,36,24,4108,-5040,-10855,-10409,1432,1308,-235,248,1177,-867
75153,33,326,306,93,153,57,30,22,4147,-4816,-10883,-10471,1360,1357,-218,211,1054,-815
75176,40,321,361,97,198,62,34,27,4175,-4615,-10910,-10521,1343,1321,-208,192,908,-779
75199,40,320,375,105,219,66,36,28,4192,-4443,-10929,-10569,1292,1320,-141,130,760,-693
75213,39,242,389,135,302,106,49,38,4214,-4289,-10938,-10615,1296,1336,-118,91,719,-587
75236,56,232,415,142,307,113,54,53,4265,-4161,-10929,-10654,1349,1303,-51,70,727,-401
75259,70,204,425,146,334,136,71,60,4321,-4041,-10918,-10689,1304,1348,-68,63,729,-310
75281,87,228,390,164,367,157,84,67,4381,-3926,-10896,-10729,1266,1387,-9,21,736,-243
75296,108,253,465,225,423,202,101,78,4444,-3816,-10871,-10769,1166,1419,-10,-5,741,-166
75318,114,262,446,303,550,251,116,85,4521,-3710,-10842,-10803,1251,1489,-16,7,782,-96
75341,112,231,363,308,574,304,138,88,4603,-3592,-10804,-10846,1234,1524,-19,-53,882,-106
75356,106,236,354,371,579,305,140,85,4659,-3489,-10773,-10886,1087,1490,-17,-73,718,-110
75378,99,211,354,388,584,360,170,105,4706,-3413,-10751,-10912,1053,1538,-17,-53,557,-6
75401,94,174,244,397,575,350,169,111,4742,-3364,-10719,-10943,1121,1515,-11,-168,440,24
75416,108,196,234,346,571,371,182,117,4772,-3342,-10686,-10969,1138,1474,36,-182,307,83
75438,119,200,260,361,679,397,193,134,4798,-3344,-10655,-10988,1192,1493,87,-187,174,151
75461,120,209,277,377,749,420,205,144,4815,-3362,-10623,-11005,1203,1480,183,-174,50,180
75476,120,210,298,423,794,394,189,136,4828,-3380,-10607,-11010,1175,1523,202,-78,-14,188
75498,109,216,281,439,838,394,187,125,4834,-3394,-10601,-11008,1216,1557,172,-26,-33,151
75521,103,208,333,444,762,343,167,113,4850,-3407,-10580,-11018,1325,1516,256,-79,18,128
75536,88,252,347,471,665,270,138,85,4884,-3407,-10563,-11019,1360,1508,216,-10,137,135
75558,95,251,328,446,613,258,127,74,4906,-3397,-10566,-11009,1205,1554,165,89,90,135
75581,99,260,304,445,636,279,131,84,4900,-3393,-10577,-11003,1139,1548,144,54,-32,64
75596,116,272,309,537,597,318,154,96,4892,-3399,-10575,-11007,1218,1529,138,-56,-42,44
75618,107,261,284,614,634,353,169,108,4892,-3410,-10565,-11012,1304,1522,169,-72,-19,67
75641,111,225,259,662,619,360,172,112,4904,-3409,-10559,-11014,1302,1500,204,0,39,66
75656,105,223,317,664,580,335,162,107,4904,-3401,-10559,-11016,1277,1506,221,30,12,-5
75678,104,224,355,648,505,299,152,101,4888,-3384,-10568,-11019,1255,1544,167,29,-10,-90
75701,85,201,360,564,455,248,127,89,4879,-3368,-10572,-11024,1268,1478,187,21,14,-86
75716,85,196,332,473,387,202,105,75,4871,-3349,-10577,-11029,1237,1501,161,19,39,-77
75738,79,204,359,474,455,224,111,74,4851,-3343,-10595,-11023,1179,1459,116,58,-79,-67
75761,84,198,305,506,448,242,119,81,4836,-3346,-10610,-11014,1200,1446,151,69,-104,-21
75776,79,177,233,495,451,237,116,69,4829,-3341,-10609,-11019,1315,1522,174,-15,-8,-44
75798,82,172,216,472,446,240,112,81,4832,-3335,-10600,-11028,1340,1488,204,-33,48,-33
75821,86,188,229,472,454,250,121,84,4834,-3324,-10595,-11036,1266,1489,200,-13,51,-26
75836,88,167,164,358,443,240,119,88,4828,-3316,-10601,-11035,1190,1467,119,15,3,-23
75858,82,156,149,269,480,238,115,85,4810,-3326,-10613,-11028,1166,1445,113,14,-120,3
75881,80,178,184,234,416,223,106,82,4795,-3340,-10618,-11026,1244,1493,135,-18,-113,15
75896,70,196,199,232,393,207,102,68,4787,-3354,-10615,-11027,1292,1517,147,-51,-75,30
75918,64,168,189,223,347,173,83,62,4772,-3364,-10617,-11029,1280,1527,150,-32,-94,-5
75941,58,158,195,201,249,120,59,50,4739,-3380,-10629,-11027,1206,1491,129,-21,-200,-42
75956,54,183,191,172,157,78,40,39,4687,-3410,-10658,-11012,1137,1448,80,32,-351,-50
75978,46,167,161,152,146,76,37,32,4631,-3458,-10685,-10994,1151,1451,152,43,-467,2
76001,59,150,134,140,142,85,44,36,4596,-3508,-10703,-10976,1302,1473,139,28,-378,48
76016,59,147,141,137,141,85,40,34,4585,-3538,-10709,-10965,1394,1531,113,-2,-179,52
76038,58,149,150,140,162,87,43,34,4578,-3561,-10709,-10961,1316,1548,113,-25,-118,80
76061,59,117,151,138,136,81,44,34,4566,-3581,-10714,-10954,1262,1529,106,1,-143,62
76076,65,124,165,132,131,73,42,35,4540,-3604,-10729,-10942,1202,1508,63,19,-212,34
76098,54,119,158,106,136,64,34,30,4488,-3641,-10765,-10916,1144,1478,23,87,-399,-5
76121,48,121,148,92,131,55,32,28,4413,-3697,-10808,-10885,1134,1467,9,78,-578,-20
76136,51,153,139,73,101,54,28,30,4347,-3767,-10840,-10856,1189,1422,40,40,-590,33
76159,51,151,136,65,98,55,29,29,4302,-3843,-10874,-10814,1215,1402,0,99,-546,138
76181,42,133,112,58,98,73,32,27,4257,-3935,-10917,-10755,1180,1411,-82,152,-624,230
76196,39,124,105,42,80,71,31,28,4204,-4049,-10958,-10691,1156,1390,-40,149,-759,301
76219,40,122,94,45,85,87,37,36,4157,-4186,-10990,-10624,1282,1422,-137,75,-787,399
76241,34,92,111,45,82,88,37,31,4136,-4356,-10999,-10555,1450,1388,-179,-22,-773,584
76263,33,109,111,44,82,86,34,31,4134,-4523,-10995,-10489,1448,1434,-117,-8,-698,689
76278,34,109,112,42,86,72,32,31,4122,-4679,-10996,-10424,1524,1464,-130,9,-709,604
76301,35,113,127,44,88,87,37,34,4098,-4811,-10990,-10380,1577,1479,-124,-71,-642,448
76323,39,109,128,41,79,72,33,25,4079,-4924,-10970,-10355,1579,1367,-136,-158,-499,357
76338,37,102,96,38,78,71,34,25,4066,-5034,-10956,-10322,1502,1290,-156,-100,-479,375
76361,36,80,87,40,79,72,34,26,4053,-5156,-10960,-10263,1378,1182,-249,11,-559,438
76383,39,77,85,39,68,79,35,27,4025,-5313,-10971,-10181,1267,1159,-278,42,-777,584
76398,39,71,64,38,60,62,31,21,3988,-5515,-10971,-10089,1337,1210,-297,-27,-978,758
76421,33,66,48,38,61,60,31,29,3969,-5735,-10936,-10011,1572,1232,-359,-201,-895,880
76444,39,58,34,37,57,58,29,42,3956,-5970,-10869,-9951,1685,1224,-349,-368,-869,975
76458,43,51,40,36,53,55,28,44,3926,-6199,-10810,-9888,1652,1303,-374,-353,-928,950
76481,39,52,40,34,49,45,26,44,3865,-6407,-10767,-9826,1585,1306,-377,-329,-985,772
76504,38,54,36,32,46,44,25,45,3778,-6588,-10723,-9788,1672,1358,-386,-430,-953,548
76519,41,54,34,30,44,39,22,42,3689,-6726,-10677,-9778,1769,1336,-303,-458,-799,329
76541,38,49,36,30,49,40,23,30,3615,-6817,-10647,-9776,1783,1249,-287,-338,-608,117
76563,33,53,28,27,49,45,25,25,3560,-6871,-10635,-9771,1790,1241,-278,-177,-447,-2
76579,33,52,27,25,46,56,26,25,3526,-6897,-10636,-9763,1736,1222,-334,-54,-276,-57
76601,37,54,26,22,41,56,26,22,3504,-6908,-10643,-9756,1656,1196,-364,-5,-171,-68
76623,39,52,27,24,43,56,25,22,3480,-6919,-10654,-9746,1547,1146,-345,16,-184,-69
76639,35,46,24,36,43,60,28,25,3455,-6935,-10653,-9743,1587,1169,-364,-59,-174,-39
76661,31,39,26,39,45,61,30,27,3439,-6954,-10648,-9741,1643,1194,-391,-62,-136,5
76683,30,34,26,42,53,68,36,27,3428,-6973,-10640,-9740,1643,1200,-411,-72,-110,29
76698,22,24,25,43,53,68,39,28,3420,-6989,-10628,-9744,1643,1182,-415,-92,-66,25
76721,17,22,22,42,54,72,41,27,3416,-7004,-10617,-9747,1603,1130,-390,-75,-60,23
76743,25,22,24,33,59,72,39,26,3418,-7016,-10615,-9741,1575,1122,-395,4,-55,32
76758,25,21,24,34,57,74,39,29,3422,-7027,-10616,-9730,1584,1185,-404,44,-59,57
76783,25,20,24,28,48,56,32,28,3427,-7043,-10615,-9717,1598,1200,-434,38,-59,89
76803,28,22,23,29,45,54,33,28,3431,-7062,-10615,-9702,1598,1147,-465,26,-76,80
76818,28,23,25,32,44,53,35,28,3430,-7083,-10618,-9684,1575,1106,-449,30,-106,55
76841,20,21,23,30,37,50,36,44,3431,-7106,-10622,-9662,1602,1115,-470,51,-123,70
76864,20,20,23,26,37,41,39,48,3438,-7140,-10629,-9627,1629,1125,-503,106,-162,135
76878,22,20,27,34,40,52,48,54,3455,-7172,-10634,-9591,1715,1124,-527,124,-123,147
76901,25,18,29,38,40,59,52,59,3488,-7198,-10655,-9537,1638,1091,-490,299,-120,176
76923,27,20,31,36,38,67,75,62,3537,-7214,-10693,-9464,1585,1039,-513,466,-85,166
76938,32,21,32,38,33,66,83,54,3595,-7229,-10737,-9380,1590,1052,-562,550,-69,211
76961,32,22,31,39,33,68,81,48,3650,-7248,-10769,-9308,1624,1120,-566,463,-58,249
76983,32,21,28,34,33,61,78,43,3684,-7279,-10790,-9245,1609,1192,-566,349,-142,293
76998,32,23,27,30,34,54,77,35,3687,-7322,-10790,-9210,1628,1243,-574,94,-194,273
77021,30,21,24,28,29,39,56,28,3661,-7367,-10774,-9203,1667,1222,-571,-137,-234,175
77043,25,21,22,26,37,44,43,25,3604,-7412,-10752,-9215,1618,1164,-552,-302,-290,60
77059,29,22,22,29,42,45,44,25,3518,-7453,-10731,-9241,1552,1111,-554,-430,-346,-75
1,Repeat 1,,,,,,,,,,,,,,,,,
23,35,21,24,28,46,55,34,28,3378,-7532,-10661,-9309,1767,1022,-499,-418,-242,-88
38,36,21,25,28,47,55,30,29,3370,-7542,-10639,-9329,1798,1030,-443,-156,-56,-49
61,37,20,25,28,43,54,29,29,3393,-7520,-10643,-9334,1701,1067,-453,95,109,-76
83,37,21,25,25,43,55,29,28,3421,-7481,-10659,-9337,1639,1119,-510,165,200,-109
106,29,22,25,23,43,52,32,26,3440,-7438,-10674,-9347,1611,1138,-547,106,224,-137
121,30,23,23,24,38,43,30,26,3452,-7403,-10686,-9357,1571,1124,-550,67,177,-124
143,30,23,22,24,37,41,28,25,3456,-7380,-10695,-9363,1569,1128,-564,30,116,-87
166,31,22,23,27,36,39,28,23,3457,-7367,-10699,-9368,1602,1120,-555,3,66,-67
181,27,20,22,27,32,35,27,27,3457,-7360,-10700,-9373,1636,1106,-563,-25,45,-55
203,23,18,20,29,32,38,23,24,3458,-7354,-10700,-9377,1632,1103,-552,-21,45,-44
226,23,17,22,29,38,43,31,27,3463,-7346,-10700,-9381,1631,1112,-534,2,56,-37
241,24,17,20,30,41,45,30,26,3466,-7339,-10703,-9383,1615,1129,-532,13,41,-32
263,20,18,20,27,42,44,36,26,3465,-7333,-10703,-9387,1619,1122,-535,-17,27,-40
286,20,18,20,27,40,43,37,22,3462,-7328,-10699,-9397,1652,1134,-511,-55,27,-45
301,21,20,20,27,39,41,36,22,3458,-7323,-10695,-9407,1640,1130,-534,-60,35,-48
323,26,19,22,26,37,38,31,19,3456,-7318,-10692,-9415,1629,1126,-541,-49,41,-42
346,25,18,24,32,39,40,32,18,3457,-7312,-10690,-9421,1612,1117,-524,-31,44,-40
361,28,19,24,34,42,45,31,21,3457,-7304,-10693,-9424,1623,1139,-541,1,41,-44
383,29,20,24,35,47,47,30,23,3454,-7297,-10699,-9424,1587,1133,-532,6,20,-56
406,30,18,24,35,53,54,32,23,3448,-7291,-10702,-9427,1598,1123,-536,-22,13,-58
421,26,17,21,37,54,57,33,22,3442,-7288,-10701,-9434,1626,1118,-528,-51,9,-58
443,27,18,18,31,52,54,33,23,3436,-7287,-10699,-9438,1589,1116,-526,-43,5,-37
466,24,17,20,30,50,48,28,22,3434,-7288,-10696,-9442,1572,1104,-492,-38,2,-13
481,21,14,21,29,44,46,27,24,3432,-7290,-10693,-9445,1591,1130,-503,-27,-3,-2
503,23,14,22,29,41,38,27,24,3430,-7290,-10692,-9446,1601,1156,-515,-17,0,-1
526,23,16,21,25,38,30,26,23,3430,-7287,-10692,-9449,1609,1170,-505,-5,17,-12
541,22,17,22,26,37,31,26,25,3430,-7281,-10693,-9453,1602,1165,-503,-1,27,-25
563,22,16,20,27,40,35,28,24,3431,-7272,-10694,-9457,1614,1163,-496,3,32,-39
586,21,21,18,26,46,41,28,20,3431,-7265,-10697,-9459,1613,1164,-514,4,31,-35
601,20,22,20,25,42,41,34,24,3430,-7261,-10698,-9462,1603,1150,-524,-9,24,-30
623,23,22,23,25,44,48,35,25,3428,-7260,-10698,-9463,1595,1133,-516,-17,5,-21
646,21,21,25,26,49,51,37,30,3425,-7260,-10698,-9464,1596,1123,-520,-24,1,-26
661,21,21,25,26,52,56,37,30,3424,-7259,-10698,-9466,1604,1127,-506,-16,5,-21
683,21,18,27,30,48,53,37,30,3424,-7260,-10698,-9465,1601,1142,-525,-9,11,-11
706,19,18,27,31,49,53,32,30,3424,-7260,-10698,-9465,1601,1151,-510,-6,10,-8
721,19,17,24,31,46,51,33,30,3423,-7258,-10697,-9467,1615,1171,-510,-17,9,-13
743,21,17,22,29,42,47,30,25,3419,-7259,-10696,-9470,1604,1157,-519,-28,1,-14
766,24,18,24,26,37,39,27,24,3417,-7261,-10694,-9471,1585,1133,-507,-26,-9,-4
781,24,20,21,25,35,35,27,25,3415,-7264,-10693,-9471,1584,1126,-518,-21,-3,-2
803,23,20,22,25,45,40,28,25,3416,-7264,-10693,-9471,1599,1131,-474,-11,4,0
826,21,20,23,26,47,38,26,25,3416,-7264,-10692,-9471,1602,1136,-494,-7,6,5
841,21,21,23,25,47,37,26,24,3420,-7264,-10690,-9472,1605,1150,-501,-6,19,13
863,21,21,22,25,48,39,25,24,3424,-7265,-10687,-9473,1605,1148,-506,-8,21,13
886,23,20,22,24,52,47,28,25,3427,-7264,-10687,-9473,1600,1155,-502,4,18,3
901,24,19,20,24,43,44,27,22,3427,-7264,-10687,-9474,1595,1159,-491,10,7,-3
923,25,19,18,26,50,48,25,24,3427,-7264,-10687,-9474,1614,1162,-487,-2,9,-6
946,24,21,21,27,48,50,27,25,3432,-7261,-10685,-9476,1633,1151,-473,5,19,-5
961,21,24,26,34,68,59,32,29,3438,-7257,-10684,-9477,1628,1154,-481,20,29,-4
983,22,26,29,39,72,57,31,28,3454,-7255,-10681,-9477,1628,1138,-487,27,59,38
1006,23,29,33,59,85,64,37,30,3473,-7253,-10677,-9476,1612,1151,-492,45,79,60
1021,24,31,34,61,83,60,37,30,3496,-7248,-10673,-9476,1601,1161,-502,48,111,74
1043,23,30,32,61,88,59,35,28,3515,-7245,-10669,-9475,1591,1148,-507,34,92,68
1066,24,28,28,63,75,48,32,24,3530,-7247,-10666,-9472,1600,1142,-512,27,55,70
1088,21,27,28,62,72,46,31,23,3541,-7252,-10660,-9471,1604,1083,-484,-5,30,48
1103,22,25,28,58,65,34,25,21,3555,-7259,-10653,-9468,1643,1101,-513,4,36,63
1126,21,22,27,63,68,40,28,20,3570,-7268,-10645,-9464,1639,1115,-506,5,36,93
1148,19,23,27,66,72,52,34,19,3585,-7276,-10636,-9462,1623,1137,-492,5,34,109
1163,22,23,31,64,73,56,34,21,3598,-7285,-10625,-9463,1633,1139,-476,-17,27,101
1186,22,22,28,62,71,55,34,24,3607,-7291,-10617,-9464,1630,1137,-482,-15,27,71
1208,20,25,24,51,63,54,32,23,3615,-7294,-10612,-9465,1622,1125,-483,-3,32,55
1223,21,31,34,52,91,58,36,26,3629,-7295,-10605,-9466,1628,1117,-464,11,50,62
1246,21,31,39,52,96,53,34,27,3649,-7294,-10599,-9465,1643,1124,-473,36,80,76
1268,24,49,41,61,100,51,32,29,3668,-7292,-10596,-9464,1625,1113,-461,47,70,65
1283,28,74,51,75,108,54,33,29,3688,-7290,-10591,-9463,1658,1124,-498,36,92,72
1306,30,82,59,86,122,64,38,31,3712,-7287,-10582,-9466,1660,1119,-491,11,122,84
1328,30,84,59,103,133,64,41,31,3732,-7288,-10569,-9471,1652,1097,-464,-10,97,88
1343,34,86,67,107,169,76,44,39,3753,-7289,-10553,-9480,1649,1085,-432,-28,104,90
1366,33,77,66,124,188,88,52,40,3799,-7287,-10529,-9490,1690,1044,-431,1,210,158
1388,64,106,155,181,344,233,125,83,3862,-7277,-10503,-9501,1680,1048,-419,47,312,199
1403,115,170,270,291,624,398,207,134,3944,-7259,-10469,-9519,1660,1018,-313,82,390,233
1426,129,190,299,408,766,455,239,147,4072,-7266,-10419,-9515,1772,1044,-569,109,556,544
1448,140,218,328,511,826,487,258,160,4184,-7277,-10379,-9501,1760,1150,-468,178,407,560
1463,150,229,346,528,920,515,270,169,4277,-7244,-10357,-9509,1756,1186,-403,193,486,295
1486,144,221,331,537,992,514,266,162,4325,-7194,-10360,-9522,1656,1080,-362,163,363,-2
1508,120,181,263,567,935,457,233,135,4339,-7136,-10377,-9541,1647,1099,-399,109,281,-181
1523,114,181,258,628,894,427,216,130,4330,-7085,-10400,-9558,1657,1095,-425,56,170,-254
1546,108,173,229,595,1008,400,200,116,4308,-7025,-10424,-9586,1740,1103,-405,6,166,-375
1568,97,165,207,614,1064,375,192,106,4273,-6933,-10460,-9629,1798,1167,-424,5,250,-581
1583,103,164,200,609,1038,347,180,97,4208,-6826,-10502,-9688,1775,1186,-396,-79,209,-778
1606,113,179,223,572,1013,413,220,119,4113,-6732,-10545,-9748,1672,1169,-352,-159,54,-827
1629,121,180,233,501,1133,488,251,139,4035,-6659,-10569,-9804,1623,1124,-251,-181,24,-672
1643,125,201,264,467,1024,511,261,146,3985,-6608,-10573,-9855,1590,1071,-250,-203,68,-467
1666,134,251,358,471,986,543,279,159,3971,-6590,-10556,-9891,1562,969,-201,-171,72,-197
1688,128,255,379,516,1012,548,283,163,3984,-6555,-10544,-9922,1539,1043,-189,-56,205,-136
1704,110,244,361,548,962,464,240,140,4018,-6493,-10543,-9949,1609,1146,-217,80,365,-159
1726,93,231,350,553,860,380,199,114,4045,-6423,-10543,-9984,1608,1183,-234,46,396,-214
1749,83,203,324,583,863,352,184,106,4073,-6348,-10543,-10021,1582,1180,-231,32,423,-226
1764,70,145,232,571,753,293,150,86,4114,-6258,-10552,-10051,1567,1208,-241,142,512,-236
1786,70,148,219,547,616,286,152,85,4164,-6159,-10563,-10079,1523,1217,-243,178,572,-224
1809,81,160,217,527,743,303,159,93,4205,-6057,-10574,-10113,1543,1233,-285,126,585,-279
1831,135,211,283,480,667,488,272,157,4241,-5963,-10573,-10155,1592,1204,-266,27,573,-287
1846,136,206,293,446,626,493,279,161,4278,-5882,-10566,-10194,1658,1202,-257,-4,532,-252
1869,140,213,342,485,656,526,291,167,4307,-5812,-10555,-10233,1635,1215,-240,-40,469,-219
1883,156,217,328,500,706,598,318,185,4344,-5740,-10533,-10281,1691,1271,-211,-91,540,-191
1906,167,259,389,518,690,641,341,196,4381,-5650,-10497,-10351,1650,1374,-156,-185,653,-208
1929,157,283,411,509,726,577,298,177,4407,-5573,-10462,-10417,1638,1336,-129,-205,557,-209
1943,163,344,492,595,745,605,309,187,4436,-5486,-10433,-10481,1590,1315,-77,-149,578,-247
1966,165,354,467,548,729,588,303,188,4464,-5377,-10403,-10554,1559,1353,-30,-145,663,-318
1988,162,367,495,536,711,597,308,187,4482,-5259,-10380,-10628,1544,1340,-21,-135,663,-409
2011,155,342,459,484,597,540,277,171,4499,-5151,-10359,-10694,1475,1241,-2,-114,608,-398
2026,162,312,410,480,596,544,269,165,4522,-5041,-10335,-10760,1498,1256,9,-123,641,-388
2048,172,248,322,434,570,560,274,166,4549,-4937,-10320,-10812,1426,1286,31,-36,599,-313
2071,177,241,339,483,592,599,298,173,4568,-4857,-10310,-10849,1312,1244,27,-23,453,-225
2093,165,214,295,490,545,512,256,151,4598,-4785,-10290,-10887,1380,1308,37,-61,477,-149
2108,170,229,319,547,726,579,289,174,4612,-4726,-10272,-10924,1358,1315,61,-96,369,-151
2131,144,214,312,564,707,531,268,160,4629,-4683,-10257,-10949,1341,1311,129,-38,271,-74
2146,158,233,334,546,725,536,271,168,4649,-4638,-10238,-10978,1403,1343,148,-54,301,-76
2168,151,245,348,536,741,498,248,159,4668,-4596,-10225,-11000,1392,1340,175,-12,256,-73
2191,150,268,435,561,765,496,248,160,4689,-4551,-10219,-11015,1335,1363,145,30,266,-43
2206,135,244,403,514,628,404,205,133,4704,-4519,-10211,-11029,1355,1376,157,3,196,-19
2228,136,232,392,553,557,376,196,132,4718,-4488,-10193,-11053,1426,1401,147,-88,234,-43
2251,109,215,367,549,563,310,170,113,4725,-4466,-10177,-11073,1352,1323,132,-86,168,-32
2266,102,184,340,548,528,280,154,104,4728,-4452,-10177,-11077,1324,1318,153,7,68,-17
2288,102,136,230,626,536,275,149,99,4733,-4421,-10179,-11086,1376,1410,180,41,130,-64
2311,102,141,238,650,520,301,160,104,4728,-4396,-10177,-11100,1386,1358,170,-22,103,-107
2326,93,147,277,666,556,290,149,93,4732,-4377,-10171,-11111,1415,1354,207,-16,99,-59
2348,97,178,300,686,610,309,151,92,4735,-4353,-10172,-11119,1395,1368,189,26,101,-73
2371,103,199,280,714,614,350,170,107,4734,-4339,-10181,-11116,1329,1342,160,58,31,-38
2386,101,199,269,689,573,334,162,103,4734,-4340,-10178,-11118,1330,1343,168,-19,2,30
2408,107,194,262,704,637,345,164,105,4737,-4355,-10169,-11119,1364,1350,183,-54,-39,92
2431,100,187,213,646,609,334,159,102,4739,-4365,-10168,-11116,1406,1428,147,-22,-24,84
2446,84,149,150,677,508,278,135,86,4728,-4373,-10175,-11111,1371,1406,126,-4,-71,19
2468,75,129,151,660,502,233,117,69,4707,-4387,-10186,-11104,1326,1382,151,9,-156,10
2491,84,153,169,607,567,290,137,83,4695,-4399,-10192,-11099,1375,1380,202,15,-122,22
2506,76,163,181,564,499,254,121,73,4693,-4410,-10188,-11099,1430,1400,217,-16,-66,47
2528,77,167,184,573,505,258,123,73,4696,-4410,-10183,-11102,1433,1411,208,-13,3,33
2551,69,167,193,483,509,263,122,70,4696,-4405,-10181,-11106,1379,1359,186,-3,22,-4
2566,71,155,177,429,515,271,128,78,4693,-4401,-10187,-11103,1331,1341,160,32,-13,-3
2588,64,140,186,415,466,211,108,65,4688,-4406,-10197,-11094,1337,1366,144,48,-66,32
2611,56,118,176,401,444,197,101,62,4693,-4414,-10198,-11088,1401,1361,175,25,-29,64
2626,53,119,166,366,406,183,96,60,4700,-4422,-10193,-11086,1418,1366,161,-15,-7,73
2648,50,111,156,367,377,161,86,56,4706,-4430,-10193,-11081,1424,1367,140,9,-11,62
2671,53,126,160,368,306,115,62,39,4701,-4439,-10202,-11071,1363,1335,108,29,-65,31
2686,50,132,139,304,301,128,63,38,4689,-4458,-10216,-11056,1362,1337,128,52,-152,47
2708,50,153,162,277,289,136,66,38,4688,-4477,-10224,-11041,1420,1375,124,40,-105,87
2731,53,158,162,253,277,137,68,39,4677,-4495,-10234,-11029,1450,1416,107,18,-132,44
2746,58,165,157,198,283,141,70,40,4642,-4524,-10261,-11007,1390,1368,56,53,-280,-14
2768,45,147,147,148,260,130,64,39,4570,-4581,-10317,-10961,1273,1304,-8,133,-589,-44
2791,41,127,121,112,170,103,58,34,4462,-4680,-10399,-10886,1184,1257,5,223,-979,-15
2806,61,120,107,90,134,97,54,39,4332,-4817,-10485,-10796,1222,1217,19,229,-1252,26
2828,60,102,106,75,129,98,51,37,4236,-4956,-10538,-10719,1384,1189,25,122,-1079,125
2851,55,86,104,67,99,90,45,35,4169,-5095,-10581,-10638,1429,1255,-91,120,-934,272
2866,55,84,103,54,101,88,42,32,4101,-5252,-10634,-10534,1346,1239,-236,171,-1012,378
2888,54,101,137,49,108,78,32,28,4017,-5444,-10674,-10429,1372,1267,-86,122,-1260,487
2911,38,104,144,47,110,71,28,23,3996,-5609,-10649,-10374,1805,1429,-193,-162,-730,582
2933,36,121,151,44,106,68,31,24,3999,-5769,-10599,-10336,1803,1370,-79,-214,-616,676
2948,34,128,153,43,116,84,37,23,3999,-5897,-10576,-10288,1725,1401,-116,-52,-552,561
2971,36,129,156,38,111,83,35,22,3980,-5986,-10565,-10255,1641,1390,-106,-41,-477,343
2993,38,127,130,34,92,73,35,21,3962,-6041,-10554,-10241,1588,1319,-114,-66,-314,192
3008,30,109,99,33,78,73,35,19,3943,-6087,-10559,-10216,1523,1228,-172,21,-305,120
3031,33,96,90,34,79,75,38,18,3921,-6134,-10585,-10169,1460,1158,-247,136,-364,95
3053,36,86,83,31,75,52,31,18,3887,-6198,-10630,-10096,1395,1093,-341,224,-512,104
3068,33,81,73,33,79,59,36,20,3833,-6288,-10674,-10015,1397,1127,-333,191,-703,164
3091,28,60,61,32,75,60,36,21,3796,-6392,-10691,-9944,1642,1193,-365,77,-653,264
3114,24,53,46,32,78,63,37,25,3764,-6515,-10681,-9888,1712,1157,-383,-78,-637,362
3128,24,62,31,30,78,60,32,24,3733,-6658,-10656,-9830,1692,1134,-420,-155,-676,480
3151,26,64,37,31,64,61,33,37,3696,-6806,-10626,-9776,1614,1153,-429,-198,-695,530
3173,31,69,49,30,47,61,36,37,3656,-6945,-10596,-9726,1608,1238,-406,-182,-688,536
3188,39,69,47,31,50,64,40,39,3622,-7059,-10553,-9703,1738,1336,-410,-261,-515,464
3211,42,72,50,30,49,61,40,37,3577,-7149,-10514,-9695,1825,1287,-363,-291,-476,274
3233,40,55,49,31,53,73,42,38,3541,-7196,-10498,-9691,1778,1148,-373,-171,-317,40
3248,37,52,44,31,53,73,42,25,3519,-7214,-10496,-9688,1729,1130,-370,-60,-181,-43
3271,34,48,25,29,47,64,36,23,3505,-7226,-10499,-9682,1643,1115,-395,-9,-125,-27
3293,28,48,26,28,43,59,31,21,3484,-7249,-10504,-9666,1590,1128,-432,-11,-196,10
3308,23,43,23,26,38,70,36,23,3451,-7286,-10502,-9652,1568,1104,-434,-83,-273,40
3331,23,38,23,28,34,58,34,22,3414,-7334,-10493,-9639,1580,1098,-444,-138,-305,74
3353,22,31,23,27,34,53,36,23,3380,-7387,-10483,-9622,1610,1118,-461,-121,-328,111
3368,22,23,25,25,33,53,36,27,3349,-7436,-10475,-9603,1641,1141,-479,-100,-313,105
3391,19,21,24,25,32,54,35,27,3315,-7480,-10472,-9584,1634,1145,-477,-79,-309,66
3413,20,20,23,25,34,41,27,26,3285,-7512,-10475,-9566,1666,1145,-481,-37,-271,12
3428,20,18,24,23,30,41,26,26,3259,-7534,-10482,-9550,1644,1123,-466,-9,-229,-28
3451,18,19,24,21,31,43,23,24,3247,-7547,-10488,-9538,1669,1123,-453,30,-152,-19
3473,21,21,23,23,31,55,33,24,3246,-7553,-10494,-9526,1685,1156,-497,52,-74,-7
3488,25,22,22,22,30,55,33,26,3249,-7556,-10501,-9515,1644,1112,-508,64,-38,-5
3511,24,20,20,27,30,47,34,25,3256,-7560,-10509,-9501,1618,1088,-530,76,-23,3
3533,24,21,21,31,31,58,39,25,3261,-7566,-10519,-9483,1601,1096,-552,85,-42,18
3548,30,21,21,32,29,58,40,27,3259,-7581,-10527,-9463,1594,1112,-582,52,-86,39
3579,29,20,23,32,28,48,33,23,3250,-7605,-10534,-9439,1588,1103,-598,27,-143,63
3593,26,19,24,33,28,56,39,23,3236,-7639,-10538,-9412,1603,1126,-574,24,-220,91
3608,27,20,25,29,27,56,38,24,3214,-7678,-10538,-9388,1635,1147,-570,-17,-261,97
3631,28,22,26,25,26,48,34,26,3187,-7715,-10535,-9370,1650,1136,-577,-65,-259,68
3653,23,24,26,23,27,55,39,25,3157,-7746,-10534,-9355,1625,1089,-536,-63,-255,14
3668,23,22,23,23,30,55,41,27,3134,-7770,-10530,-9348,1651,1102,-491,-54,-212,2
3691,37,22,24,20,30,51,36,24,3116,-7790,-10530,-9338,1624,1108,-476,-10,-199,12
3713,51,22,24,24,29,57,42,24,3098,-7810,-10529,-9327,1579,1106,-492,-10,-190,30
3728,75,18,22,24,28,55,43,23,3082,-7829,-10524,-9323,1624,1129,-524,-47,-148,27
3751,86,17,20,25,33,47,38,22,3070,-7839,-10523,-9319,1651,1142,-585,-32,-90,-2
3774,87,18,20,24,34,51,37,20,3060,-7838,-10527,-9319,1661,1166,-609,-17,-34,-45
3788,83,16,20,24,37,49,38,22,3052,-7829,-10533,-9323,1664,1147,-637,-24,21,-93
3811,76,22,20,21,37,42,31,22,3047,-7811,-10543,-9328,1644,1106,-641,-4,64,-136
3833,56,22,20,20,36,43,29,20,3046,-7791,-10556,-9330,1629,1079,-652,16,77,-146
3848,39,21,20,21,35,42,27,19,3044,-7775,-10566,-9333,1593,1054,-649,1,73,-134
3871,37,21,21,23,32,36,23,18,3041,-7765,-10574,-9333,1605,1092,-656,-8,41,-92
3893,34,22,20,26,32,36,23,17,3034,-7764,-10576,-9335,1586,1102,-635,-39,8,-49
3916,32,15,23,25,42,42,26,17,3025,-7767,-10571,-9340,1600,1119,-609,-80,-13,-23
3931,26,15,23,26,42,43,27,18,3015,-7771,-10565,-9347,1605,1129,-584,-79,-23,-20
3953,23,17,23,28,42,43,28,18,3007,-7774,-10562,-9350,1593,1134,-584,-50,-24,-16
3976,21,17,22,26,45,44,27,20,3002,-7774,-10559,-9355,1578,1129,-551,-36,-8,-23
3991,21,20,23,25,46,42,27,20,3002,-7768,-10557,-9362,1595,1129,-542,-17,22,-30
4,Repeat 2,,,,,,,,,,,,,,,,,
26,19,22,19,25,39,35,27,19,3010,-7757,-10558,-9368,1613,1138,-602,-9,56,-21
41,20,23,21,20,36,34,27,23,3014,-7753,-10555,-9373,1605,1133,-607,-26,55,-8
64,21,24,21,23,35,32,27,20,3017,-7750,-10551,-9380,1604,1141,-593,-36,54,-8
86,18,23,21,23,39,42,26,21,3016,-7748,-10550,-9382,1589,1139,-601,-27,24,-17
101,21,26,21,21,36,41,24,24,3013,-7746,-10550,-9384,1594,1139,-593,-23,10,-23
124,25,24,21,22,38,43,23,23,3009,-7745,-10549,-9388,1609,1136,-588,-38,6,-30
146,25,24,19,26,39,45,22,20,3004,-7745,-10548,-9391,1609,1144,-586,-34,0,-26
161,26,24,20,26,42,51,27,22,3000,-7744,-10545,-9396,1593,1142,-566,-42,5,-22
184,26,22,20,28,37,46,28,22,2995,-7744,-10541,-9402,1597,1149,-558,-51,-3,-17
206,24,18,19,30,39,47,29,21,2990,-7744,-10535,-9410,1601,1145,-559,-59,8,-17
221,21,20,21,30,42,47,30,21,2989,-7743,-10530,-9417,1600,1134,-536,-41,13,-18
244,20,19,23,29,44,51,31,22,2989,-7739,-10528,-9423,1586,1141,-550,-24,27,-18
266,20,21,25,27,39,45,25,21,2993,-7735,-10527,-9426,1586,1130,-555,-8,36,-12
281,20,22,27,26,41,43,25,21,2998,-7732,-10527,-9428,1595,1138,-562,5,36,-8
304,22,24,28,26,43,43,23,19,3002,-7729,-10527,-9428,1585,1135,-566,7,30,-5
326,22,24,28,28,43,45,23,21,3005,-7727,-10527,-9429,1599,1140,-583,-4,28,-10
341,22,25,26,27,39,49,34,27,3006,-7726,-10528,-9429,1588,1141,-583,-5,19,-4
364,22,20,27,28,41,49,34,27,3005,-7728,-10526,-9429,1578,1143,-562,-20,-1,7
386,21,20,27,29,42,56,35,25,3004,-7733,-10521,-9431,1606,1145,-553,-31,-13,9
401,19,20,26,29,38,56,34,25,3004,-7735,-10518,-9432,1624,1158,-553,-18,-6,9
424,21,20,25,26,36,53,34,24,3004,-7735,-10518,-9433,1600,1156,-538,-11,3,8
446,23,22,27,28,43,46,23,18,3004,-7736,-10518,-9432,1580,1138,-559,-10,7,10
461,23,23,24,27,42,48,25,18,3006,-7737,-10515,-9434,1589,1124,-562,-18,15,4
484,25,22,22,26,38,43,24,21,3007,-7737,-10515,-9434,1591,1133,-554,-2,15,9
506,26,24,23,25,37,40,24,21,3012,-7739,-10514,-9432,1595,1132,-561,8,10,19
521,24,24,23,26,42,48,24,22,3016,-7742,-10511,-9431,1604,1145,-563,-2,11,25
544,22,22,21,23,39,49,24,21,3018,-7745,-10507,-9432,1616,1150,-560,-17,8,17
566,24,22,23,22,44,48,24,20,3020,-7747,-10503,-9435,1617,1145,-554,-25,7,12
583,23,26,22,22,44,46,22,18,3020,-7747,-10503,-9435,1603,1145,-551,-10,10,11
604,21,21,21,21,48,51,24,21,3020,-7747,-10503,-9434,1601,1130,-562,-2,15,9
626,22,22,22,24,42,49,25,20,3021,-7748,-10503,-9434,1595,1116,-541,1,13,2
641,22,25,21,25,40,47,27,22,3027,-7746,-10502,-9434,1606,1129,-541,14,21,1
664,22,26,21,27,35,47,26,22,3032,-7746,-10502,-9433,1588,1138,-542,15,17,14
686,24,23,26,28,33,47,27,22,3038,-7746,-10499,-9434,1600,1143,-540,7,21,21
701,26,31,41,29,29,43,27,19,3043,-7744,-10497,-9436,1616,1160,-541,2,25,15
724,35,50,113,32,37,45,26,24,3051,-7738,-10495,-9440,1616,1167,-548,11,58,6
746,37,95,176,48,42,50,28,23,3079,-7725,-10488,-9451,1626,1161,-494,41,157,49
761,37,101,197,56,58,59,29,25,3109,-7709,-10475,-9468,1604,1214,-584,-10,237,88
784,38,104,284,78,85,71,37,30,3148,-7676,-10467,-9490,1664,1246,-432,75,271,31
806,42,110,317,86,92,77,41,32,3216,-7618,-10461,-9522,1820,1194,-398,144,443,-44
829,51,124,311,123,118,98,62,43,3311,-7490,-10469,-9581,1896,1185,-346,246,803,-306
851,76,109,297,222,178,139,94,56,3462,-7301,-10483,-9658,1800,1134,-204,444,1216,-367
866,84,120,294,244,206,154,106,66,3677,-7084,-10509,-9712,1639,1097,-271,717,1531,-229
889,96,129,221,287,408,171,118,89,3904,-6853,-10537,-9758,1565,1034,-370,764,1660,-210
904,106,145,215,403,623,243,144,103,4118,-6634,-10562,-9795,1666,1048,-427,699,1593,-233
926,122,143,253,463,738,287,165,113,4299,-6441,-10587,-9818,1653,1123,-531,605,1423,-195
949,124,166,255,538,764,344,192,131,4453,-6271,-10622,-9822,1588,1197,-604,591,1236,-144
965,136,176,276,549,778,388,210,140,4546,-6133,-10652,-9834,1494,1261,-564,379,928,-176
986,134,183,295,573,706,403,218,134,4586,-6003,-10662,-9885,1560,1452,-438,82,767,-292
1009,139,201,283,542,649,442,236,140,4560,-5908,-10665,-9950,1566,1384,-351,-160,416,-441
1024,129,257,376,555,681,505,261,150,4537,-5831,-10647,-10026,1685,1277,-205,-262,360,-438
1046,122,253,484,506,709,478,247,142,4535,-5728,-10640,-10093,1728,1176,-89,-89,443,-533
1069,116,326,569,511,757,453,235,133,4554,-5582,-10631,-10175,1714,1261,-31,-24,689,-619
1084,118,354,573,461,765,439,225,129,4577,-5420,-10639,-10244,1647,1227,-22,104,717,-672
1106,102,338,594,424,679,366,190,111,4577,-5249,-10664,-10307,1480,1289,-35,151,653,-744
1129,105,317,609,340,515,223,126,83,4566,-5087,-10687,-10369,1394,1289,-31,107,581,-731
1144,127,341,587,255,420,198,101,74,4565,-4937,-10699,-10429,1417,1306,-96,50,623,-646
1166,139,312,522,215,302,181,91,72,4576,-4808,-10711,-10472,1448,1312,-139,70,586,-519
1189,160,291,562,217,249,168,84,68,4583,-4689,-10722,-10512,1428,1379,-125,62,538,-468
1204,167,299,542,194,228,154,79,73,4572,-4588,-10740,-10543,1340,1383,-119,55,379,-442
1226,162,275,473,210,222,146,77,70,4544,-4500,-10760,-10573,1294,1391,-76,40,249,-446
1249,147,255,462,219,238,118,64,58,4519,-4423,-10776,-10600,1309,1357,-109,8,235,-416
1264,140,224,471,213,249,107,52,53,4495,-4361,-10786,-10625,1354,1380,-62,-18,176,-362
1286,114,217,409,209,268,124,53,64,4478,-4297,-10790,-10655,1404,1472,-5,-20,208,-328
1309,111,249,491,245,268,137,60,64,4454,-4242,-10789,-10687,1349,1424,-17,-79,159,-329
1324,123,272,480,252,306,156,75,73,4437,-4192,-10783,-10720,1307,1403,-17,-101,187,-276
1346,129,274,421,233,320,176,90,81,4429,-4136,-10775,-10753,1296,1463,37,-72,228,-233
1369,120,262,414,271,317,175,91,81,4426,-4080,-10773,-10778,1285,1464,-5,-30,243,-224
1384,120,263,466,291,353,173,93,79,4415,-4032,-10775,-10799,1240,1449,26,-14,160,-210
1407,120,246,444,295,367,219,108,89,4408,-3991,-10770,-10821,1278,1436,36,-46,160,-191
1429,115,236,437,334,413,265,123,101,4408,-3948,-10765,-10842,1287,1465,81,-16,179,-166
1444,102,213,457,452,405,268,124,100,4408,-3905,-10766,-10857,1304,1531,38,11,180,-145
1467,108,212,442,513,547,311,142,108,4409,-3866,-10756,-10880,1271,1486,36,-69,199,-138
1489,114,224,436,523,556,327,145,107,4408,-3834,-10748,-10900,1251,1478,43,-65,161,-117
1504,108,205,370,545,578,297,136,98,4407,-3796,-10744,-10918,1249,1495,74,-22,160,-132
1527,101,193,379,524,567,254,117,84,4410,-3760,-10738,-10934,1267,1518,74,-22,173,-117
1549,118,293,384,457,657,276,120,82,4419,-3729,-10726,-10953,1284,1479,75,-58,192,-89
1564,126,303,399,420,606,263,122,84,4422,-3701,-10718,-10970,1241,1505,93,-43,142,-77
1587,127,319,373,496,737,283,131,89,4422,-3675,-10716,-10980,1256,1517,43,-24,124,-86
1609,128,319,439,599,795,325,145,95,4417,-3653,-10712,-10994,1247,1527,74,-47,93,-84
1624,127,325,459,597,850,351,155,100,4413,-3641,-10703,-11007,1231,1466,86,-71,61,-58
1646,130,289,440,600,824,354,163,110,4416,-3635,-10694,-11017,1252,1493,100,-56,57,-4
1669,133,348,430,577,836,386,178,120,4419,-3623,-10695,-11019,1256,1515,86,10,64,-16
1684,121,328,418,530,749,376,175,116,4417,-3613,-10692,-11026,1228,1512,82,-33,48,-28
1707,123,339,369,428,719,357,168,111,4405,-3617,-10689,-11032,1197,1476,120,-41,-58,-8
1729,126,330,376,529,652,339,167,109,4406,-3617,-10684,-11036,1243,1507,125,-27,6,21
1744,104,308,380,536,649,329,160,97,4410,-3612,-10682,-11039,1263,1523,123,1,35,10
1767,86,252,374,576,707,325,155,90,4422,-3607,-10674,-11044,1284,1521,102,-31,80,32
1789,88,264,390,571,681,339,159,91,4425,-3599,-10668,-11051,1226,1506,150,-12,44,4
1811,84,249,392,545,623,328,155,89,4429,-3587,-10666,-11055,1246,1534,107,-5,68,-7
1826,91,251,386,469,651,327,153,84,4431,-3580,-10663,-11059,1240,1516,91,-20,50,1
1849,101,254,408,440,616,306,145,86,4431,-3579,-10663,-11059,1202,1508,117,11,5,9
1872,95,232,402,426,485,261,122,78,4426,-3571,-10671,-11056,1234,1537,91,39,1,-17
1886,98,216,386,409,522,221,112,77,4412,-3569,-10679,-11055,1206,1531,90,9,-51,-35
1909,111,225,374,397,542,229,122,86,4401,-3578,-10679,-11056,1221,1493,111,-30,-76,8
1932,101,252,350,461,474,232,127,93,4393,-3587,-10681,-11054,1249,1507,109,-7,-69,12
1946,92,221,393,490,539,258,136,95,4384,-3595,-10682,-11055,1214,1511,112,-20,-70,19
1969,94,211,392,475,522,236,128,87,4378,-3602,-10683,-11054,1253,1545,96,-19,-48,26
1991,95,230,382,471,471,226,121,83,4370,-3601,-10684,-11056,1229,1545,116,-6,-30,-6
2006,108,259,374,473,476,218,116,85,4362,-3597,-10688,-11057,1195,1533,98,3,-20,-12
2029,114,260,363,386,618,247,122,88,4352,-3600,-10692,-11056,1190,1511,89,-2,-53,5
2051,113,270,354,353,576,229,115,81,4348,-3602,-10690,-11059,1235,1526,119,-19,-26,14
2066,110,258,339,313,581,231,117,84,4352,-3608,-10683,-11061,1259,1507,139,-26,-7,48
2089,108,230,333,291,578,235,117,85,4357,-3613,-10677,-11065,1239,1490,153,-18,-5,46
2111,86,196,357,254,545,223,109,77,4364,-3618,-10673,-11063,1221,1476,111,-6,4,62
2126,83,183,356,219,364,163,80,59,4360,-3628,-10678,-11057,1168,1486,81,15,-61,63
2149,81,166,256,182,288,138,67,55,4335,-3652,-10700,-11039,1116,1460,37,56,-221,40
2171,79,182,259,137,237,114,57,47,4288,-3698,-10723,-11018,1088,1441,34,15,-396,49
2186,83,190,287,116,156,85,48,53,4242,-3771,-10743,-10992,1147,1390,30,-9,-495,124
2209,72,177,246,102,143,76,37,47,4196,-3862,-10765,-10957,1154,1390,-4,3,-567,200
2231,56,176,220,85,137,80,35,47,4155,-3967,-10786,-10913,1183,1364,14,27,-627,271
2246,60,176,220,70,139,83,40,54,4131,-4079,-10807,-10861,1254,1341,-7,70,-601,341
2269,55,163,217,71,131,78,44,53,4112,-4184,-10843,-10792,1284,1275,-30,207,-597,305
2291,63,161,193,66,139,89,49,38,4102,-4284,-10891,-10708,1310,1271,-36,332,-601,324
2306,67,180,210,65,137,89,49,36,4104,-4358,-10920,-10648,1337,1452,-39,236,-395,332
2329,67,150,201,66,129,83,50,37,4113,-4441,-10921,-10609,1535,1653,28,90,-368,403
2351,64,157,204,66,123,78,48,24,4102,-4528,-10914,-10584,1529,1626,-61,-62,-396,337
2366,64,171,190,74,122,79,42,24,4086,-4600,-10921,-10551,1487,1475,-110,20,-376,221
2389,50,179,181,66,127,71,40,29,4084,-4662,-10932,-10513,1463,1406,-131,79,-301,222
2411,69,169,208,74,130,70,46,34,4104,-4716,-10932,-10482,1442,1456,-159,56,-151,318
2426,73,168,216,74,132,81,48,37,4129,-4776,-10926,-10451,1440,1539,-167,32,-147,412
2449,73,159,206,74,146,88,50,36,4138,-4844,-10918,-10424,1415,1441,-165,-18,-225,358
2471,80,165,215,64,121,87,52,39,4136,-4926,-10900,-10406,1443,1349,-184,-144,-284,332
2486,76,151,199,65,116,89,52,37,4123,-5031,-10876,-10386,1464,1316,-181,-197,-406,383
2509,56,144,116,50,122,88,47,31,4105,-5140,-10860,-10356,1395,1330,-204,-152,-456,423
2531,49,140,97,50,136,82,48,33,4088,-5268,-10832,-10328,1471,1309,-175,-210,-525,486
2546,51,144,108,46,115,64,42,32,4083,-5410,-10771,-10321,1589,1274,-150,-394,-459,572
2569,46,153,95,45,119,68,44,35,4081,-5572,-10694,-10315,1613,1264,-172,-484,-483,683
2591,49,159,86,39,111,62,44,35,4091,-5716,-10642,-10286,1513,1300,-191,-265,-450,709
2606,49,146,87,38,101,62,43,47,4061,-5853,-10620,-10244,1344,1389,-285,-200,-588,615
2629,49,144,87,38,95,58,38,44,4007,-5998,-10593,-10208,1546,1354,-231,-278,-729,484
2651,51,139,75,37,96,61,39,45,3953,-6129,-10552,-10195,1709,1245,-158,-364,-660,334
2666,52,91,59,42,98,90,45,42,3920,-6235,-10515,-10181,1794,1200,-196,-282,-496,273
2689,50,49,49,44,93,93,42,41,3897,-6330,-10483,-10164,1710,1213,-150,-195,-451,297
2713,52,58,47,46,93,94,40,27,3906,-6421,-10433,-10155,1666,1198,-174,-227,-268,445
2734,62,61,39,52,77,95,47,27,3917,-6517,-10378,-10146,1535,1194,-187,-245,-265,536
2749,69,62,37,54,77,97,48,28,3911,-6609,-10331,-10137,1600,1211,-289,-279,-274,440
2771,66,58,36,50,65,63,35,27,3880,-6694,-10304,-10120,1613,1229,-351,-248,-360,295
2794,80,56,33,51,71,82,45,32,3834,-6768,-10294,-10099,1631,1219,-331,-181,-431,171
2809,79,42,31,47,59,102,54,34,3793,-6839,-10286,-10075,1659,1158,-260,-125,-440,142
2831,73,36,32,48,71,106,51,34,3765,-6905,-10268,-10058,1668,1092,-252,-151,-358,157
2854,69,34,31,49,71,104,51,32,3746,-6963,-10250,-10044,1647,1086,-218,-115,-309,162
2869,67,31,31,50,73,105,54,32,3731,-7012,-10245,-10020,1620,1116,-320,-41,-263,146
2891,52,32,28,48,66,88,48,32,3704,-7058,-10257,-9986,1594,1115,-369,18,-320,84
2914,59,37,30,51,68,71,46,31,3662,-7105,-10281,-9943,1564,1118,-402,47,-404,24
2929,60,35,32,45,61,65,47,29,3609,-7158,-10305,-9900,1629,1141,-371,25,-491,-2
2951,56,41,34,41,58,64,44,28,3560,-7218,-10298,-9881,1735,1128,-306,-131,-451,42
2974,62,43,32,39,55,62,40,32,3529,-7271,-10272,-9881,1808,1148,-247,-196,-326,92
2990,64,49,33,44,59,64,40,27,3510,-7301,-10250,-9888,1729,1125,-270,-153,-176,52
3011,63,50,33,40,65,53,32,25,3501,-7311,-10246,-9888,1642,1106,-335,-44,-77,-6
3034,60,52,39,42,65,52,33,26,3494,-7310,-10257,-9880,1610,1084,-348,51,-60,-63
3049,62,46,37,43,63,58,39,26,3489,-7305,-10262,-9880,1671,1074,-348,11,-23,-92
3071,63,43,38,43,65,55,38,23,3485,-7301,-10264,-9882,1669,1107,-379,-12,7,-66
3094,63,39,39,38,62,54,36,23,3482,-7307,-10264,-9878,1628,1122,-411,-19,-25,8
3109,57,48,37,38,58,53,34,23,3480,-7319,-10263,-9871,1669,1152,-409,-9,-57,34
3131,72,46,27,31,66,85,39,24,3469,-7333,-10265,-9864,1640,1110,-400,-24,-92,-2
3154,69,45,25,30,66,87,36,25,3461,-7337,-10261,-9868,1660,1063,-364,-59,-39,-54
3169,68,44,25,29,63,87,36,22,3459,-7339,-10258,-9869,1663,1083,-361,-21,-16,-29
3191,71,42,22,29,67,97,39,24,3463,-7343,-10259,-9864,1657,1099,-398,16,-8,2
3214,73,23,21,28,60,95,41,24,3464,-7349,-10261,-9857,1637,1117,-415,11,-23,14
3229,58,23,22,29,59,72,36,29,3457,-7355,-10261,-9855,1623,1134,-408,-27,-39,-4
3251,68,20,20,30,65,69,35,28,3447,-7365,-10260,-9853,1652,1138,-450,-58,-42,-3
3274,63,22,23,31,68,73,39,27,3437,-7377,-10255,-9852,1670,1138,-439,-72,-54,10
3289,58,20,22,32,67,66,39,28,3426,-7391,-10251,-9850,1658,1136,-412,-62,-76,9
3311,69,19,27,33,68,71,38,29,3413,-7401,-10247,-9851,1665,1088,-380,-61,-79,-32
3334,70,17,27,31,63,73,36,23,3403,-7403,-10246,-9854,1655,1088,-380,-47,-41,-61
3349,62,18,28,32,56,71,35,24,3396,-7405,-10248,-9852,1650,1089,-397,-16,-35,-52
10,Repeat 3,,,,,,,,,,,,,,,,,
32,57,20,28,34,67,88,39,25,3379,-7420,-10244,-9852,1654,1141,-393,-48,-63,-2
47,39,20,26,33,67,85,40,26,3366,-7429,-10239,-9854,1627,1121,-380,-67,-73,-13
70,35,20,26,38,63,82,37,26,3356,-7436,-10234,-9857,1629,1103,-380,-64,-49,-20
101,33,20,26,35,68,86,38,27,3350,-7441,-10232,-9858,1633,1112,-397,-35,-30,-12
107,28,19,25,43,76,92,39,25,3347,-7447,-10230,-9856,1627,1121,-405,-23,-30,0
130,31,19,25,41,60,68,32,22,3344,-7453,-10227,-9856,1639,1121,-395,-30,-26,6
152,31,20,25,43,59,70,32,22,3340,-7461,-10222,-9856,1652,1121,-401,-40,-32,3
167,32,21,26,40,61,69,34,22,3336,-7466,-10220,-9856,1660,1129,-393,-24,-34,-9
190,35,20,26,46,61,65,37,26,3332,-7468,-10218,-9858,1660,1136,-380,-24,-24,-17
212,33,22,26,37,52,56,37,26,3328,-7468,-10217,-9860,1664,1139,-374,-17,-16,-26
227,32,22,29,36,55,58,38,27,3328,-7465,-10217,-9863,1641,1127,-364,-4,1,-29
250,32,22,36,38,57,59,37,26,3326,-7459,-10220,-9865,1630,1134,-383,10,7,-44
272,32,21,38,44,55,68,41,29,3322,-7456,-10223,-9866,1627,1124,-405,-8,4,-42
295,28,23,38,38,52,66,39,24,3321,-7456,-10223,-9866,1632,1100,-403,-13,2,-31
310,28,21,39,39,51,65,37,25,3323,-7453,-10223,-9868,1637,1113,-376,3,11,-26
332,26,23,36,39,48,69,40,26,3323,-7453,-10223,-9867,1639,1136,-395,-4,12,-11
355,27,21,28,37,46,67,41,27,3323,-7453,-10223,-9867,1645,1141,-394,8,12,-11
370,28,24,23,29,43,62,40,27,3325,-7450,-10225,-9866,1634,1139,-393,20,10,-19
392,29,24,23,31,49,66,47,29,3328,-7445,-10231,-9863,1642,1138,-414,34,20,-34
415,34,27,25,33,60,78,50,30,3330,-7438,-10236,-9862,1633,1127,-404,24,26,-42
430,34,29,32,35,73,85,48,30,3332,-7433,-10242,-9859,1620,1121,-416,33,23,-33
452,34,31,33,35,77,88,46,31,3336,-7431,-10244,-9858,1622,1119,-404,11,19,-13
475,31,29,33,34,76,88,44,28,3336,-7431,-10244,-9858,1628,1132,-401,1,15,-10
490,29,29,34,34,76,92,38,26,3336,-7432,-10244,-9858,1639,1137,-409,9,12,-16
512,24,27,33,32,69,86,36,25,3335,-7429,-10247,-9856,1640,1155,-428,9,11,-24
535,23,24,26,26,54,78,34,23,3334,-7426,-10250,-9856,1632,1140,-409,2,7,-28
550,21,25,24,29,49,75,35,23,3334,-7427,-10252,-9853,1623,1112,-417,2,-2,-17
572,21,25,26,29,49,69,34,24,3334,-7427,-10254,-9851,1616,1121,-415,6,0,-17
595,21,25,23,29,60,69,33,25,3334,-7427,-10254,-9851,1612,1118,-404,-1,-9,-10
610,24,26,23,32,64,69,36,27,3332,-7429,-10254,-9850,1616,1148,-387,-4,-18,0
632,22,27,20,33,69,66,36,28,3329,-7432,-10254,-9848,1616,1150,-398,-4,-22,3
655,35,24,21,29,71,60,34,26,3330,-7433,-10254,-9848,1643,1132,-394,6,-9,-7
670,35,23,19,33,79,63,34,24,3335,-7430,-10257,-9845,1639,1119,-391,31,10,-15
692,35,30,22,35,71,57,32,24,3340,-7425,-10262,-9842,1622,1132,-412,41,27,-16
715,34,33,28,35,68,54,28,21,3347,-7420,-10266,-9839,1609,1122,-403,45,33,-8
730,34,33,37,35,60,52,29,23,3352,-7418,-10271,-9834,1608,1139,-424,38,22,-1
752,19,38,40,36,60,57,32,23,3355,-7418,-10275,-9829,1622,1151,-432,29,6,7
775,19,41,41,35,65,64,37,24,3357,-7418,-10278,-9825,1615,1153,-406,25,-2,6
790,20,38,50,32,61,60,37,23,3360,-7417,-10281,-9821,1619,1149,-402,29,-3,4
812,22,43,47,27,59,59,35,23,3360,-7418,-10281,-9821,1629,1137,-406,15,3,10
835,29,49,43,29,64,58,32,21,3364,-7419,-10282,-9817,1628,1142,-412,24,3,15
850,31,48,41,31,64,56,29,23,3368,-7421,-10285,-9811,1614,1136,-424,29,-5,17
872,32,48,39,28,54,49,24,23,3368,-7422,-10285,-9811,1631,1127,-416,6,-13,11
895,33,49,31,39,60,51,27,24,3368,-7422,-10285,-9811,1640,1141,-413,15,-12,7
910,30,45,29,39,58,53,34,25,3368,-7422,-10285,-9811,1631,1138,-400,14,-7,3
932,25,41,33,41,56,54,36,24,3373,-7422,-10283,-9811,1637,1121,-401,1,17,3
955,24,56,40,40,53,53,37,25,3379,-7421,-10282,-9811,1632,1128,-397,10,23,12
970,22,55,44,40,54,49,38,24,3385,-7419,-10284,-9808,1623,1137,-425,31,26,8
992,22,54,42,33,52,47,34,22,3389,-7418,-10286,-9806,1609,1146,-401,24,13,13
1015,22,56,49,34,56,48,31,22,3394,-7418,-10287,-9803,1614,1130,-416,19,14,15
1030,24,67,45,32,55,49,31,23,3399,-7419,-10285,-9802,1641,1133,-417,7,18,20
1052,27,57,48,39,60,59,33,25,3407,-7420,-10284,-9800,1633,1125,-392,18,16,28
1075,26,69,82,44,52,62,33,25,3424,-7416,-10283,-9798,1643,1136,-409,52,71,38
1090,27,83,94,44,45,59,34,27,3434,-7413,-10281,-9799,1638,1169,-417,12,60,40
1112,28,88,95,47,43,54,32,25,3442,-7411,-10274,-9806,1658,1179,-403,-21,57,40
1135,29,86,95,51,57,63,41,32,3451,-7408,-10263,-9815,1680,1160,-376,-34,66,33
1150,24,90,98,45,53,55,37,28,3469,-7398,-10260,-9819,1728,1153,-398,33,104,8
1172,24,90,132,49,59,58,40,28,3482,-7372,-10269,-9825,1674,1152,-406,64,141,-81
1195,27,95,224,71,67,70,51,30,3494,-7336,-10274,-9843,1648,1067,-381,21,199,-158
1210,26,104,238,74,70,80,57,32,3506,-7294,-10275,-9869,1683,1084,-419,-30,265,-181
1232,26,104,260,76,72,82,51,29,3511,-7245,-10270,-9907,1734,1106,-505,-128,337,-244
1255,39,111,272,95,91,88,55,30,3511,-7193,-10258,-9958,1785,1143,-527,-218,380,-275
1278,53,108,263,111,116,111,65,35,3500,-7148,-10239,-10014,1702,1216,-469,-272,332,-218
1292,61,116,222,237,300,145,72,48,3513,-7122,-10209,-10059,1699,1229,-456,-241,337,-28
1315,71,123,220,296,344,185,92,59,3579,-7084,-10146,-10126,1796,1265,-294,-240,588,156
1338,84,140,205,322,372,187,97,66,3646,-7001,-10101,-10205,1598,1256,-189,-138,737,5
1352,114,160,261,368,519,282,153,102,3720,-6891,-10065,-10288,1545,1138,-94,-60,831,-125
1375,146,207,355,387,596,361,193,130,3797,-6776,-10047,-10353,1523,1049,2,95,762,-190
1397,146,206,470,349,572,363,195,127,3883,-6663,-10051,-10390,1584,1223,-43,270,722,-108
1412,156,204,572,333,584,372,201,137,3939,-6538,-10082,-10419,1612,1316,-72,338,625,-285
1435,158,212,614,332,586,377,204,135,3958,-6407,-10122,-10454,1573,1325,-101,258,540,-457
1457,137,260,708,293,494,320,170,112,3966,-6280,-10158,-10493,1617,1278,-84,195,498,-527
1472,107,254,722,280,407,224,120,77,3987,-6150,-10189,-10532,1658,1296,-87,210,568,-500
1495,110,264,679,274,357,198,109,73,3998,-6013,-10239,-10559,1599,1348,-117,293,524,-553
1518,90,288,676,249,302,142,74,43,4003,-5881,-10285,-10586,1512,1243,-83,264,483,-578
1533,98,306,759,261,272,125,62,37,3991,-5754,-10332,-10615,1411,1149,-71,219,408,-639
1555,105,272,713,259,204,100,47,36,3982,-5637,-10382,-10632,1469,1177,-147,232,384,-608
1586,125,256,756,267,201,98,51,37,3966,-5524,-10441,-10640,1509,1328,-125,295,307,-589
1593,119,245,784,262,186,103,51,35,3943,-5425,-10492,-10649,1428,1354,-130,223,251,-525
1615,130,228,738,297,310,116,56,40,3922,-5343,-10517,-10673,1380,1352,-92,71,237,-421
1638,127,208,623,290,314,112,61,46,3911,-5264,-10528,-10706,1397,1371,-43,11,287,-368
1653,127,227,603,317,365,137,70,46,3910,-5181,-10536,-10739,1412,1315,-73,14,355,-375
1675,120,255,689,384,375,147,77,53,3902,-5103,-10554,-10761,1411,1401,-46,75,271,-361
1698,122,264,754,418,405,149,77,55,3888,-5026,-10570,-10786,1410,1421,-88,30,274,-384
1713,124,257,754,393,325,143,78,59,3867,-4954,-10583,-10814,1330,1460,-66,-5,233,-346
1735,149,268,782,395,329,154,81,67,3844,-4899,-10592,-10840,1265,1372,-44,-35,157,-305
1758,143,268,828,415,299,135,74,70,3839,-4836,-10599,-10863,1332,1416,-45,10,255,-275
1773,147,264,733,425,337,163,95,88,3825,-4773,-10613,-10881,1351,1495,-33,41,202,-299
1795,157,263,657,435,318,161,96,90,3810,-4702,-10622,-10909,1369,1535,30,15,223,-337
1818,157,271,754,510,347,182,104,99,3791,-4629,-10619,-10950,1315,1507,16,-88,266,-352
1833,155,246,800,534,347,177,101,99,3790,-4556,-10609,-10990,1310,1471,24,-88,344,-297
1855,155,277,811,521,333,178,102,97,3787,-4489,-10606,-11022,1277,1413,-8,-56,303,-293
1878,137,285,767,488,329,146,75,77,3766,-4430,-10623,-11036,1178,1495,-32,33,167,-279
1893,124,302,733,456,322,145,73,74,3731,-4380,-10641,-11051,1183,1574,-13,5,72,-282
1915,125,321,691,371,352,144,69,70,3691,-4348,-10651,-11068,1225,1537,0,-52,-4,-263
1938,91,345,670,389,365,152,73,65,3659,-4323,-10657,-11082,1246,1452,-1,-58,4,-246
1953,100,325,615,387,432,164,79,70,3642,-4303,-10655,-11098,1199,1382,49,-58,31,-169
1975,108,317,673,349,395,157,77,70,3643,-4283,-10658,-11102,1223,1494,36,24,80,-64
1998,109,319,771,367,391,160,78,70,3621,-4259,-10674,-11102,1163,1600,10,48,-5,-122
2013,103,322,797,396,342,137,67,58,3586,-4243,-10687,-11108,1159,1567,28,-4,-74,-163
2035,110,365,806,363,347,122,59,53,3551,-4228,-10700,-11112,1217,1545,67,21,-97,-186
2058,110,353,825,348,263,112,59,48,3530,-4216,-10709,-11115,1314,1495,35,6,-38,-186
2073,106,337,807,378,249,109,60,47,3514,-4196,-10716,-11120,1206,1529,33,13,11,-133
2103,138,364,797,366,267,109,65,60,3509,-4183,-10717,-11126,1186,1532,1,-21,45,-57
2118,144,356,763,353,264,110,68,63,3508,-4170,-10720,-11128,1217,1577,3,10,53,-37
2133,142,323,784,330,232,123,75,72,3503,-4152,-10720,-11137,1259,1603,34,-23,63,-85
2155,141,317,782,342,230,128,77,100,3500,-4131,-10717,-11149,1245,1554,49,-26,85,-106
2178,149,321,889,402,280,160,86,114,3489,-4106,-10723,-11156,1229,1561,4,-3,65,-146
2200,125,267,935,411,274,158,82,107,3481,-4087,-10725,-11163,1208,1549,-11,-29,66,-108
2215,116,289,924,406,322,179,93,116,3470,-4077,-10729,-11166,1137,1507,-7,-18,14,-66
2238,104,270,861,390,327,170,87,113,3459,-4074,-10728,-11172,1183,1554,56,-26,-26,-47
2260,95,263,818,390,330,165,78,91,3452,-4064,-10729,-11176,1249,1601,44,-11,17,-72
2275,82,248,661,301,285,133,68,73,3441,-4041,-10728,-11189,1222,1607,43,-36,61,-132
2298,71,263,546,265,273,132,70,79,3412,-4028,-10735,-11196,1094,1530,-16,-53,-35,-140
2320,77,218,577,308,228,94,51,68,3387,-4037,-10737,-11198,1071,1493,40,-40,-131,-40
2335,85,242,594,345,208,91,52,67,3388,-4051,-10732,-11198,1231,1575,102,-9,-61,54
2358,85,265,629,352,223,97,61,65,3389,-4051,-10731,-11199,1224,1568,81,-16,9,15
2380,82,277,632,334,226,100,63,67,3393,-4039,-10730,-11203,1164,1597,29,-4,71,-2
2395,84,301,553,340,214,90,58,60,3388,-4039,-10731,-11203,1082,1549,-4,-25,-7,27
2418,73,306,462,285,225,91,55,49,3373,-4054,-10733,-11201,1090,1548,27,-26,-113,36
2440,71,285,496,241,229,94,53,40,3374,-4066,-10728,-11200,1170,1554,87,-11,-59,66
2455,70,277,464,194,199,77,44,34,3380,-4076,-10721,-11201,1189,1547,48,-26,-9,70
2478,69,273,434,199,196,71,36,28,3392,-4080,-10714,-11203,1132,1535,63,-11,29,93
2500,64,236,465,167,191,74,37,29,3398,-4096,-10717,-11193,1092,1503,-18,13,-37,118
2515,59,223,460,150,136,75,39,33,3386,-4127,-10731,-11171,1070,1517,-44,48,-188,123
2538,61,205,463,164,138,79,41,37,3351,-4186,-10756,-11137,1025,1472,-88,55,-396,139
2560,59,179,426,142,129,84,39,40,3307,-4269,-10771,-11103,1132,1541,17,31,-549,192
2575,63,174,419,130,130,86,39,39,3290,-4349,-10762,-11086,1338,1582,98,-39,-416,228
2597,75,163,401,138,144,85,36,42,3288,-4418,-10753,-11068,1314,1539,23,-37,-301,247
2620,75,163,394,148,142,84,34,38,3294,-4477,-10746,-11049,1196,1475,17,6,-235,276
2635,68,194,296,111,177,72,29,34,3308,-4547,-10743,-11019,1157,1441,-41,34,-251,359
2657,66,210,279,108,182,81,31,30,3327,-4619,-10738,-10988,1313,1558,-1,58,-256,383
2680,63,215,297,106,180,81,31,29,3358,-4694,-10722,-10963,1408,1594,-17,6,-196,427
2695,54,235,294,90,166,74,31,25,3384,-4764,-10697,-10949,1379,1553,-5,-63,-181,402
2726,51,229,278,58,160,74,35,27,3410,-4825,-10688,-10924,1278,1464,-40,29,-166,373
2740,53,202,238,59,109,75,38,28,3427,-4895,-10685,-10890,1160,1396,-92,47,-236,401
2755,56,185,259,49,133,69,39,30,3435,-4994,-10686,-10841,1235,1368,-177,35,-381,457
2777,50,173,236,52,195,74,40,30,3436,-5116,-10689,-10781,1266,1393,-199,39,-514,532
2800,43,141,201,54,206,78,43,33,3461,-5246,-10659,-10739,1479,1436,-63,-48,-443,637
2815,48,147,227,54,203,72,37,31,3494,-5372,-10616,-10709,1583,1442,-49,-112,-376,635
2837,47,181,268,52,197,69,34,31,3514,-5487,-10591,-10669,1492,1416,-63,-28,-417,564
2860,49,190,322,66,189,81,37,33,3512,-5593,-10593,-10612,1323,1385,-204,56,-473,486
2876,51,198,418,66,131,82,43,33,3495,-5717,-10588,-10557,1427,1392,-169,-5,-603,483
2897,54,205,433,63,130,83,42,29,3486,-5830,-10553,-10533,1602,1358,-117,-169,-473,423
2920,54,222,416,63,131,83,43,31,3503,-5915,-10519,-10514,1719,1371,-124,-103,-269,378
2935,55,198,409,62,129,84,44,33,3515,-5976,-10499,-10496,1644,1349,-124,-37,-217,274
2957,55,182,343,45,106,65,39,30,3525,-6016,-10497,-10471,1516,1302,-155,62,-172,194
2980,51,170,212,34,104,54,32,29,3505,-6052,-10513,-10442,1375,1359,-282,49,-235,120
2995,46,155,184,37,93,49,29,29,3468,-6108,-10523,-10412,1460,1370,-273,-26,-383,118
3017,37,115,178,37,93,52,27,25,3439,-6171,-10513,-10393,1539,1298,-227,-108,-353,145
3040,44,103,142,35,95,49,27,26,3414,-6250,-10494,-10374,1581,1257,-281,-168,-366,207
3055,38,101,141,37,109,61,25,26,3400,-6339,-10467,-10351,1564,1245,-195,-136,-404,315
3077,38,101,133,38,97,59,25,25,3376,-6411,-10462,-10321,1399,1303,-269,-55,-380,264
3100,37,99,124,41,103,65,25,24,3341,-6489,-10452,-10293,1532,1353,-283,-106,-441,238
3115,39,95,124,42,111,71,28,24,3299,-6550,-10440,-10280,1612,1302,-208,-140,-411,88
3137,28,97,147,40,109,71,27,18,3281,-6594,-10419,-10279,1651,1240,-185,-136,-240,81
3160,46,111,163,40,90,58,30,22,3280,-6645,-10392,-10274,1640,1249,-201,-114,-200,195
3182,53,122,165,41,92,61,30,25,3293,-6683,-10378,-10259,1523,1271,-264,-5,-107,241
3197,53,122,166,37,78,61,32,25,3299,-6728,-10355,-10250,1568,1313,-275,-82,-135,256
3220,56,122,167,39,62,57,35,25,3289,-6763,-10339,-10247,1598,1251,-288,-114,-146,110
3242,55,102,120,41,64,58,35,25,3278,-6788,-10325,-10249,1565,1204,-276,-109,-107,53
3257,41,85,129,43,68,62,35,25,3270,-6822,-10313,-10241,1554,1180,-302,-84,-142,98
3280,33,83,143,43,71,70,38,23,3277,-6867,-10293,-10229,1590,1214,-269,-62,-149,222
3302,34,82,141,41,63,64,37,23,3271,-6915,-10280,-10211,1498,1226,-341,-67,-187,217
3317,34,94,140,38,64,61,33,25,3256,-6965,-10265,-10197,1595,1237,-389,-127,-211,167
3340,33,92,141,38,63,64,35,25,3217,-7007,-10257,-10188,1567,1182,-349,-154,-272,21
3362,35,105,108,35,56,58,33,24,3184,-7051,-10257,-10168,1551,1211,-295,-56,-320,57
3377,38,99,97,33,49,45,29,25,3168,-7090,-10253,-10151,1614,1193,-312,-36,-239,81
3400,39,105,99,34,64,61,31,26,3156,-7127,-10245,-10137,1610,1219,-272,-30,-220,106
3422,32,102,101,35,66,61,31,25,3157,-7147,-10241,-10126,1682,1228,-265,26,-126,62
3437,31,108,103,35,66,59,30,25,3164,-7151,-10243,-10119,1660,1206,-278,57,-37,6
3460,27,90,93,35,64,58,28,22,3172,-7141,-10256,-10110,1598,1213,-309,114,13,-38
3482,24,81,79,33,68,60,27,22,3181,-7131,-10272,-10098,1566,1193,-343,125,26,-42
3497,27,69,72,31,60,43,25,21,3183,-7127,-10292,-10080,1534,1180,-363,126,-34,-37
3520,28,59,67,30,57,41,23,20,3179,-7132,-10307,-10063,1585,1210,-369,89,-76,-23
3542,27,45,45,27,62,41,20,20,3173,-7141,-10313,-10052,1595,1196,-348,38,-89,-9
3558,29,36,35,24,66,49,22,21,3173,-7155,-10312,-10043,1593,1158,-354,4,-74,29
3580,30,35,29,27,64,54,25,20,3178,-7172,-10310,-10031,1628,1208,-384,19,-61,77
3602,25,32,30,27,62,56,26,20,3181,-7195,-10303,-10021,1622,1215,-382,-19,-79,108
14,Repeat 4,,,,,,,,,,,,,,,,,
36,26,65,73,33,60,58,29,19,3168,-7262,-10279,-10001,1570,1166,-381,-75,-162,128
59,25,84,80,33,57,59,30,20,3159,-7299,-10269,-9988,1594,1172,-353,-52,-185,125
74,26,88,81,32,55,60,33,25,3149,-7329,-10261,-9976,1597,1211,-400,-49,-148,107
96,25,90,81,32,54,59,33,24,3139,-7355,-10248,-9974,1634,1189,-359,-83,-123,75
119,26,85,84,32,51,58,34,24,3140,-7367,-10241,-9972,1648,1142,-370,-33,-46,26
134,29,70,50,39,58,54,32,23,3156,-7368,-10242,-9966,1639,1151,-399,54,41,31
156,35,47,38,43,63,52,32,23,3182,-7365,-10245,-9956,1622,1161,-414,96,84,66
179,34,40,42,55,68,57,33,20,3211,-7364,-10247,-9946,1617,1173,-442,97,102,93
194,34,37,40,56,72,59,32,20,3237,-7362,-10247,-9939,1618,1161,-410,80,93,77
216,34,27,34,57,77,60,31,22,3258,-7359,-10251,-9930,1626,1178,-430,82,81,54
239,30,30,36,54,85,69,33,22,3274,-7359,-10254,-9922,1625,1160,-442,55,59,47
254,23,33,39,52,91,71,36,22,3287,-7363,-10254,-9914,1617,1120,-434,33,32,42
276,22,36,42,43,84,60,30,22,3301,-7370,-10252,-9906,1620,1125,-425,33,24,64
299,23,51,58,44,88,66,33,24,3310,-7378,-10253,-9897,1605,1147,-416,36,-4,67
314,22,53,61,46,89,72,36,24,3320,-7386,-10251,-9890,1586,1160,-414,23,8,82
336,24,51,59,58,80,62,33,24,3329,-7393,-10246,-9886,1599,1135,-390,6,10,67
359,23,48,60,63,91,64,31,26,3335,-7395,-10242,-9887,1622,1127,-353,3,8,22
374,22,49,59,62,97,64,31,25,3350,-7392,-10241,-9885,1650,1124,-352,51,40,23
396,23,61,56,67,94,59,29,23,3370,-7386,-10245,-9879,1623,1124,-364,96,61,30
419,22,62,54,65,87,49,27,23,3397,-7379,-10248,-9872,1628,1121,-366,109,90,52
441,19,64,56,52,85,48,28,23,3419,-7370,-10254,-9865,1622,1154,-399,109,93,42
456,16,65,53,52,61,34,25,21,3431,-7361,-10261,-9859,1624,1168,-408,77,59,7
479,17,63,49,51,52,44,34,22,3438,-7356,-10268,-9854,1642,1148,-392,61,24,-6
501,18,39,44,48,51,43,31,21,3440,-7352,-10276,-9848,1666,1154,-396,57,-6,-31
516,20,40,42,47,56,45,31,20,3449,-7344,-10283,-9843,1678,1135,-396,65,40,-31
539,20,50,41,51,69,63,35,22,3458,-7337,-10290,-9838,1663,1131,-381,69,24,-23
561,22,51,42,47,74,67,40,23,3468,-7327,-10295,-9837,1652,1125,-369,62,50,-29
576,21,52,41,46,79,64,33,24,3481,-7315,-10300,-9836,1652,1127,-409,55,85,-27
599,19,53,32,48,81,65,34,24,3492,-7304,-10303,-9837,1618,1116,-397,40,83,-21
621,23,49,32,49,80,68,36,24,3505,-7297,-10304,-9837,1611,1088,-396,35,77,-4
636,23,42,34,55,76,58,37,24,3513,-7289,-10309,-9834,1627,1111,-416,40,58,-23
659,24,38,33,51,68,57,35,23,3515,-7281,-10318,-9830,1608,1124,-387,57,18,-42
681,30,53,43,53,60,53,35,22,3516,-7278,-10327,-9823,1644,1149,-427,46,0,-26
696,32,67,45,47,53,51,34,20,3509,-7278,-10336,-9816,1637,1173,-408,31,-44,-28
719,32,77,57,48,61,62,34,23,3498,-7280,-10346,-9807,1649,1176,-427,27,-67,-39
741,32,79,62,35,59,63,31,23,3484,-7280,-10357,-9801,1635,1157,-419,18,-66,-65
756,35,89,68,34,58,59,28,22,3471,-7278,-10364,-9800,1630,1145,-410,-11,-46,-79
779,30,88,71,36,61,60,29,22,3459,-7273,-10369,-9802,1627,1148,-394,-12,-29,-76
801,28,79,70,36,58,58,28,24,3453,-7266,-10372,-9806,1669,1110,-377,-16,-6,-93
816,23,79,66,38,62,52,26,22,3453,-7254,-10379,-9808,1651,1104,-390,30,27,-98
839,27,86,61,40,61,47,24,22,3461,-7245,-10384,-9807,1633,1118,-388,47,51,-40
861,32,87,58,54,69,54,30,25,3478,-7233,-10384,-9810,1634,1160,-409,42,109,4
876,33,83,44,50,66,54,31,25,3488,-7223,-10382,-9815,1601,1182,-392,14,87,15
899,32,81,43,56,66,54,31,24,3494,-7215,-10383,-9817,1590,1127,-384,14,51,-20
921,33,73,35,54,64,56,31,24,3497,-7206,-10385,-9821,1605,1127,-381,12,47,-43
938,31,64,34,67,76,60,31,24,3501,-7198,-10389,-9822,1607,1133,-370,28,38,-34
959,20,55,35,68,71,57,25,21,3511,-7191,-10389,-9823,1622,1139,-373,32,49,-6
981,21,55,35,69,73,57,24,21,3524,-7183,-10389,-9824,1650,1182,-396,35,82,17
996,22,56,36,66,74,59,23,22,3535,-7174,-10391,-9824,1608,1201,-409,39,74,21
1019,21,60,51,69,70,53,22,22,3535,-7170,-10394,-9824,1590,1197,-416,8,34,4
1041,21,57,56,68,70,53,27,21,3533,-7167,-10394,-9827,1585,1139,-380,-17,10,-20
1056,22,52,54,60,71,54,29,21,3533,-7164,-10390,-9834,1616,1144,-378,-35,31,-13
1079,22,48,62,59,76,55,29,22,3535,-7163,-10384,-9840,1622,1156,-359,-32,24,3
1101,25,46,66,62,75,52,29,21,3540,-7161,-10378,-9846,1639,1155,-370,-25,39,8
1124,25,41,55,62,71,50,28,20,3550,-7146,-10366,-9866,1607,1170,-356,-33,65,-13
1140,28,43,51,51,69,42,23,20,3551,-7135,-10364,-9876,1602,1157,-354,-27,66,-41
1161,32,53,64,67,80,49,25,22,3556,-7122,-10362,-9885,1602,1162,-372,-15,91,-29
1184,31,57,60,70,79,49,25,20,3564,-7115,-10359,-9891,1615,1157,-372,-6,76,0
1200,30,65,62,69,82,54,28,21,3573,-7107,-10357,-9895,1599,1151,-372,1,82,1
1221,31,65,65,65,80,51,29,21,3580,-7098,-10357,-9899,1586,1147,-369,8,71,-9
1244,28,63,76,64,69,53,31,21,3581,-7089,-10360,-9902,1590,1160,-374,5,49,-31
1260,24,58,71,64,101,59,35,22,3577,-7085,-10363,-9904,1591,1152,-356,-2,6,-35
1281,31,55,79,66,117,76,41,28,3582,-7083,-10359,-9907,1644,1164,-373,-20,44,4
1304,32,46,75,70,124,74,39,28,3583,-7085,-10355,-9910,1613,1168,-370,-29,16,21
1320,32,45,72,78,132,78,40,27,3588,-7088,-10348,-9913,1634,1161,-362,-30,25,32
1341,31,45,62,84,133,76,40,27,3590,-7092,-10343,-9915,1616,1156,-354,-30,10,29
1364,33,56,58,73,106,64,34,25,3589,-7093,-10341,-9916,1606,1170,-362,-20,6,14
1388,34,72,55,75,108,63,39,24,3589,-7091,-10339,-9920,1600,1175,-348,-17,20,7
1401,32,75,62,72,106,63,41,25,3588,-7090,-10336,-9923,1601,1164,-362,-27,22,1
1424,32,79,72,88,136,74,44,30,3592,-7088,-10330,-9931,1608,1131,-328,-33,40,-2
1440,32,85,72,90,141,76,44,31,3602,-7083,-10324,-9936,1627,1127,-328,-12,66,12
1461,30,81,89,90,141,77,45,33,3623,-7075,-10319,-9940,1616,1154,-326,34,109,50
1492,25,66,88,94,136,68,41,29,3645,-7067,-10314,-9942,1608,1183,-351,37,126,69
1500,25,69,82,99,141,64,37,28,3661,-7063,-10308,-9946,1577,1163,-322,11,83,71
1521,29,78,82,85,110,54,33,25,3678,-7068,-10298,-9946,1640,1158,-326,3,54,98
1544,33,90,84,94,145,62,37,27,3698,-7070,-10293,-9943,1653,1151,-307,45,52,88
1560,30,94,63,102,184,62,36,28,3721,-7068,-10290,-9939,1664,1177,-336,63,87,86
1582,30,98,58,132,185,57,31,29,3742,-7061,-10287,-9938,1650,1169,-329,53,100,63
1604,29,94,58,130,177,60,32,31,3759,-7055,-10287,-9937,1647,1160,-327,53,75,41
1620,27,81,52,134,177,60,32,30,3767,-7048,-10288,-9937,1611,1130,-334,23,61,5
1642,23,76,67,124,169,66,34,29,3774,-7045,-10287,-9938,1602,1112,-347,2,53,12
1664,24,83,65,121,150,71,39,28,3781,-7048,-10285,-9935,1594,1078,-338,6,22,34
1680,23,79,66,89,141,74,44,26,3789,-7050,-10279,-9937,1630,1113,-299,-5,24,38
1702,29,82,70,93,155,78,47,27,3795,-7047,-10272,-9944,1649,1117,-290,-23,49,8
1724,28,103,72,109,155,79,47,27,3800,-7045,-10264,-9951,1678,1134,-311,-37,46,6
1741,29,97,64,115,129,65,41,25,3804,-7038,-10261,-9958,1661,1176,-321,-17,60,2
1762,31,83,63,134,104,61,37,22,3801,-7037,-10259,-9962,1617,1155,-331,-30,15,-1
1784,33,88,73,151,124,69,39,25,3799,-7040,-10254,-9966,1630,1128,-316,-44,3,10
1801,33,87,86,177,152,80,45,35,3803,-7042,-10248,-9970,1640,1097,-291,-28,19,17
1822,35,71,114,166,163,81,46,37,3812,-7038,-10243,-9973,1652,1133,-306,-1,56,21
1844,36,64,115,175,164,85,48,38,3818,-7035,-10238,-9979,1641,1143,-301,-19,52,21
1861,34,69,118,165,174,90,50,41,3821,-7031,-10231,-9987,1660,1153,-306,-40,56,7
1882,43,76,143,162,183,88,50,45,3829,-7024,-10227,-9994,1685,1162,-325,-17,84,1
1904,42,108,167,154,260,86,42,39,3839,-7001,-10229,-10004,1726,1220,-364,11,156,-50
1921,41,121,192,173,275,91,44,39,3844,-6961,-10229,-10030,1761,1243,-322,-32,224,-146
1943,51,137,230,193,303,109,60,50,3855,-6911,-10227,-10062,1778,1212,-317,-39,298,-191
1964,62,142,254,223,335,124,66,49,3871,-6855,-10220,-10101,1733,1252,-267,-39,347,-165
1987,60,137,255,242,362,143,77,54,3893,-6799,-10212,-10138,1808,1237,-241,-26,356,-168
2003,59,114,252,258,293,144,80,54,3929,-6717,-10198,-10193,1943,1301,-202,-34,524,-238
2024,63,98,232,290,292,151,84,54,3954,-6581,-10205,-10265,1927,1411,-209,22,705,-497
2047,59,120,220,306,313,151,81,48,3946,-6413,-10233,-10346,1659,1304,-183,26,703,-769
2063,55,140,226,320,443,174,96,54,3929,-6262,-10256,-10422,1334,1102,-111,-12,601,-710
2084,60,144,227,339,455,173,92,49,3929,-6145,-10267,-10481,1319,984,-166,-26,549,-543
2107,68,159,218,341,463,189,98,56,3941,-6038,-10281,-10525,1420,1008,-142,44,516,-477
2123,74,170,232,329,492,214,105,60,3964,-5930,-10301,-10558,1514,1147,-132,134,519,-427
2144,80,151,228,312,504,265,133,78,3976,-5828,-10321,-10591,1512,1305,-148,104,477,-383
2167,82,133,202,323,468,260,129,79,3971,-5742,-10336,-10624,1419,1330,-118,33,357,-349
2183,78,132,199,350,435,251,126,78,3955,-5669,-10345,-10661,1395,1291,-114,-48,281,-348
2204,76,138,246,405,484,252,131,78,3929,-5609,-10349,-10699,1360,1257,-54,-82,196,-342
2227,72,156,262,434,524,266,145,87,3921,-5561,-10344,-10732,1443,1243,-33,-81,210,-250
2243,73,163,308,449,542,249,140,85,3922,-5513,-10341,-10758,1443,1264,-36,-35,227,-210
2264,70,161,306,459,481,235,134,82,3925,-5478,-10333,-10782,1437,1307,-35,-62,191,-123
2287,71,167,305,419,489,237,134,82,3911,-5447,-10328,-10808,1392,1384,-30,-93,122,-139
2303,74,176,263,368,458,238,132,77,3880,-5430,-10314,-10841,1371,1377,-11,-198,27,-147
2326,80,167,242,363,467,241,131,75,3852,-5415,-10288,-10884,1426,1399,57,-253,42,-133
2347,69,169,212,349,427,224,117,65,3842,-5384,-10245,-10942,1547,1453,65,-320,218,-136
2363,68,174,213,325,483,241,121,65,3842,-5343,-10197,-11008,1544,1403,102,-325,308,-157
2384,74,178,215,344,505,256,128,71,3849,-5292,-10163,-11061,1442,1340,132,-201,318,-167
2407,83,163,220,355,550,305,153,87,3861,-5229,-10143,-11105,1391,1333,97,-110,372,-193
2423,84,151,201,376,604,292,144,84,3870,-5164,-10132,-11142,1379,1354,102,-55,343,-207
2444,85,148,169,423,647,283,140,82,3884,-5093,-10125,-11177,1473,1415,33,-53,411,-237
2467,88,171,188,405,639,291,149,87,3886,-5025,-10121,-11211,1447,1426,35,-63,354,-262
2491,93,169,188,381,665,342,174,103,3883,-4971,-10116,-11240,1414,1435,46,-76,277,-213
2504,91,220,221,376,649,321,166,98,3869,-4927,-10115,-11265,1325,1407,71,-74,174,-208
2527,99,236,274,347,555,388,204,125,3849,-4885,-10115,-11291,1315,1389,119,-70,135,-235
2543,102,247,277,377,524,398,208,127,3836,-4847,-10108,-11317,1370,1394,87,-104,171,-205
2564,113,242,287,393,549,425,215,133,3832,-4803,-10104,-11341,1417,1451,153,-40,193,-200
2587,105,239,295,492,536,399,201,125,3826,-4749,-10104,-11366,1380,1441,174,-13,220,-240
2603,96,220,278,507,552,384,191,120,3820,-4695,-10106,-11388,1303,1405,138,-12,224,-233
2626,101,238,311,526,590,333,163,100,3819,-4642,-10106,-11410,1275,1412,176,3,225,-195
2647,105,236,316,515,634,376,187,110,3825,-4587,-10103,-11433,1367,1466,167,-12,275,-195
2663,102,231,318,523,713,372,187,105,3824,-4533,-10097,-11461,1428,1489,159,-59,266,-242
2684,112,245,390,500,753,367,187,105,3817,-4487,-10091,-11486,1360,1471,154,-72,215,-216
2707,131,227,410,641,873,421,207,122,3813,-4435,-10086,-11511,1288,1449,232,-25,215,-211
2723,123,189,354,650,898,424,206,121,3817,-4369,-10082,-11539,1379,1513,279,8,296,-255
2744,117,171,345,684,883,374,180,110,3800,-4288,-10104,-11556,1215,1466,186,102,258,-371
2767,119,175,399,736,875,386,184,118,3790,-4219,-10126,-11565,1158,1448,218,138,207,-288
2783,132,159,363,709,939,419,197,129,3789,-4147,-10158,-11564,1183,1517,169,206,246,-253
2804,128,167,363,636,864,416,198,129,3774,-4075,-10183,-11572,1107,1524,170,128,217,-285
2827,131,173,366,643,898,434,201,129,3756,-4034,-10189,-11587,1067,1416,133,-28,123,-198
2843,133,177,446,620,925,443,200,129,3746,-4022,-10184,-11599,1071,1377,155,-75,48,-64
2864,123,174,393,561,848,408,186,116,3753,-4026,-10176,-11602,1118,1389,164,-48,31,61
2887,105,176,377,547,840,411,185,115,3767,-4036,-10168,-11602,1194,1469,215,-25,13,108
2903,88,174,367,476,806,357,157,95,3776,-4047,-10162,-11600,1232,1526,210,-23,-6,105
2924,81,175,377,452,706,308,141,88,3775,-4056,-10170,-11590,1159,1557,167,32,-56,82
2947,81,174,292,525,661,312,149,90,3755,-4076,-10193,-11569,1101,1512,155,91,-202,56
2963,83,197,280,563,665,307,146,88,3735,-4110,-10219,-11541,1171,1513,169,119,-271,77
2984,81,191,260,568,499,230,117,65,3725,-4137,-10229,-11525,1272,1552,227,60,-192,74
3006,76,175,240,560,440,223,112,62,3721,-4152,-10225,-11525,1290,1536,273,-5,-101,39
3023,70,178,215,533,420,199,99,55,3717,-4163,-10224,-11523,1217,1451,245,13,-82,27
3044,66,206,196,406,398,183,87,50,3718,-4178,-10233,-11509,1165,1432,192,77,-97,80
3067,63,190,193,328,347,163,76,46,3712,-4206,-10255,-11482,1190,1442,108,113,-184,88
3083,51,228,184,311,323,148,69,43,3702,-4241,-10286,-11444,1178,1468,111,183,-258,117
3105,49,226,181,292,302,133,64,40,3696,-4269,-10309,-11415,1240,1552,122,134,-191,113
3127,48,214,205,261,280,131,63,38,3679,-4308,-10325,-11391,1242,1521,103,57,-263,101
3149,44,186,184,199,203,97,50,31,3629,-4370,-10360,-11352,1185,1485,37,88,-493,56
3165,36,181,177,154,163,78,42,27,3528,-4471,-10420,-11289,1062,1415,-31,136,-878,18
3186,35,125,163,125,132,75,40,26,3404,-4600,-10487,-11213,1056,1407,-20,160,-1123,31
3209,36,149,158,111,123,78,41,29,3281,-4749,-10537,-11140,1174,1426,57,104,-1195,90
3225,30,165,148,96,99,62,35,32,3198,-4891,-10563,-11078,1358,1419,-19,29,-976,170
3246,33,162,150,82,85,56,30,31,3144,-5042,-10578,-11011,1351,1378,-41,42,-894,332
3269,39,175,200,63,72,64,31,39,3110,-5205,-10593,-10931,1278,1302,-117,93,-872,478
7,Repeat 5,,,,,,,,,,,,,,,,,
28,45,164,194,49,50,55,24,39,3065,-5495,-10655,-10739,1258,1508,-54,289,-856,550
51,46,151,176,40,50,64,28,36,3014,-5648,-10685,-10644,1405,1501,-164,208,-961,423
67,54,155,176,42,49,64,27,37,2967,-5804,-10715,-10543,1514,1395,-226,219,-969,381
88,57,134,130,41,58,58,25,28,2949,-5953,-10754,-10425,1573,1340,-226,391,-898,431
111,53,128,135,48,54,58,26,23,2984,-6056,-10799,-10308,1683,1507,-192,604,-575,466
127,55,128,153,45,53,51,28,28,3041,-6096,-10846,-10219,1965,1545,-209,621,-248,203
155,56,134,165,44,54,45,27,30,3093,-6072,-10912,-10147,1783,1522,-218,682,-17,-51
171,50,135,165,46,55,44,29,27,3142,-6028,-10975,-10090,1489,1525,-321,597,139,-27
187,47,138,153,50,49,41,32,26,3165,-6010,-10995,-10071,1312,1441,-396,195,121,59
208,44,157,157,42,42,39,32,28,3164,-6042,-10978,-10071,1247,1358,-410,-121,-55,220
230,43,156,140,42,39,38,30,27,3149,-6127,-10937,-10068,1283,1303,-427,-291,-263,389
247,55,152,181,43,47,34,28,26,3123,-6251,-10883,-10060,1369,1294,-422,-376,-448,501
268,54,149,177,42,48,31,28,26,3109,-6377,-10825,-10047,1453,1291,-393,-333,-434,543
291,52,134,181,34,45,34,26,26,3100,-6484,-10783,-10027,1549,1299,-365,-207,-406,444
307,52,115,168,36,48,39,28,23,3098,-6557,-10760,-10005,1574,1362,-328,-62,-305,327
328,50,111,165,37,53,41,33,24,3100,-6601,-10746,-9991,1604,1377,-350,-22,-184,202
351,34,113,116,36,45,38,30,23,3095,-6632,-10735,-9984,1561,1347,-383,-53,-130,125
367,37,109,136,35,43,37,31,24,3091,-6658,-10720,-9983,1549,1316,-377,-83,-101,103
388,31,102,130,34,41,35,31,27,3089,-6686,-10703,-9983,1542,1273,-395,-103,-76,113
411,36,121,135,31,42,31,28,28,3087,-6716,-10686,-9982,1531,1262,-395,-103,-90,119
433,36,121,134,28,35,33,24,26,3086,-6746,-10673,-9976,1517,1259,-393,-62,-104,128
448,36,117,142,28,37,35,24,28,3081,-6779,-10662,-9967,1519,1261,-395,-57,-135,124
471,29,132,137,28,40,35,21,27,3077,-6812,-10651,-9957,1537,1249,-409,-62,-133,123
487,34,155,140,29,42,40,22,25,3078,-6843,-10638,-9949,1519,1263,-402,-46,-102,148
508,33,146,144,29,42,41,23,25,3084,-6871,-10624,-9943,1548,1275,-373,-36,-85,151
530,31,141,142,29,44,42,25,23,3086,-6891,-10614,-9940,1585,1281,-391,-37,-59,93
547,32,138,119,27,43,43,25,24,3092,-6903,-10607,-9937,1586,1267,-400,-17,-22,63
568,31,130,101,30,42,43,26,24,3094,-6914,-10603,-9932,1539,1253,-392,-3,-41,52
590,28,105,95,30,46,39,27,26,3099,-6929,-10600,-9924,1525,1239,-424,0,-39,80
607,24,84,71,33,52,49,30,27,3103,-6949,-10592,-9917,1552,1236,-401,-19,-59,99
628,24,82,68,32,54,50,29,26,3109,-6974,-10579,-9911,1585,1222,-397,-37,-72,115
650,31,81,71,34,56,49,28,25,3112,-7004,-10564,-9906,1563,1217,-440,-76,-69,137
667,38,65,64,33,58,52,28,28,3121,-7026,-10554,-9898,1544,1243,-428,-18,-40,147
688,38,57,57,41,64,57,25,25,3121,-7048,-10548,-9889,1549,1295,-456,-22,-65,125
710,38,55,52,46,63,48,30,28,3110,-7070,-10542,-9882,1568,1295,-440,-51,-113,79
727,40,53,54,48,61,46,30,28,3097,-7090,-10537,-9878,1613,1279,-441,-62,-112,39
748,34,45,47,50,62,49,32,26,3087,-7108,-10529,-9876,1619,1238,-427,-67,-99,30
770,26,36,37,50,68,49,34,25,3077,-7131,-10519,-9874,1588,1226,-410,-79,-109,57
794,24,36,32,45,66,47,37,25,3070,-7157,-10503,-9875,1582,1219,-386,-94,-112,92
808,26,33,30,39,67,51,31,18,3068,-7184,-10478,-9881,1572,1212,-359,-125,-81,133
830,23,34,25,38,68,52,32,18,3070,-7218,-10448,-9888,1524,1178,-348,-138,-80,190
847,22,32,26,34,70,53,36,19,3078,-7259,-10416,-9889,1504,1122,-385,-141,-74,228
868,21,28,26,33,62,53,38,19,3092,-7301,-10384,-9888,1508,1098,-391,-122,-61,249
890,21,26,24,29,58,49,37,19,3106,-7341,-10356,-9883,1544,1148,-415,-94,-63,255
907,17,22,22,31,57,55,37,20,3114,-7380,-10335,-9874,1557,1219,-426,-62,-90,248
928,21,21,22,32,59,59,36,24,3115,-7419,-10314,-9866,1579,1238,-432,-85,-117,226
950,21,21,35,31,57,56,32,28,3111,-7453,-10297,-9860,1617,1243,-431,-80,-123,178
967,20,21,48,32,68,56,31,25,3108,-7478,-10289,-9850,1623,1228,-425,-25,-108,120
988,26,27,54,36,73,62,34,28,3108,-7489,-10286,-9844,1610,1187,-428,-1,-54,50
1010,30,29,57,35,76,70,37,30,3116,-7491,-10291,-9836,1634,1148,-426,56,-1,6
1033,27,28,58,33,73,68,37,29,3134,-7484,-10298,-9828,1641,1131,-421,101,51,-8
1048,27,28,60,33,69,68,37,27,3155,-7473,-10308,-9819,1612,1159,-423,125,74,9
1070,27,29,51,31,62,72,36,28,3176,-7463,-10314,-9812,1605,1176,-420,112,84,29
1093,25,27,50,26,56,69,35,27,3195,-7455,-10318,-9809,1597,1185,-427,79,82,35
1108,22,30,49,25,51,55,32,24,3210,-7447,-10319,-9809,1601,1172,-425,50,82,21
1130,22,31,56,28,49,51,31,22,3225,-7436,-10321,-9810,1611,1135,-422,47,93,-7
1153,22,32,50,28,52,54,32,21,3244,-7419,-10325,-9813,1637,1136,-440,56,136,-35
1168,22,32,50,29,47,44,30,19,3267,-7400,-10329,-9815,1650,1129,-452,73,152,-31
1190,18,30,45,28,39,42,27,20,3289,-7384,-10338,-9811,1630,1149,-483,90,143,-20
1213,17,24,42,27,31,39,28,19,3304,-7370,-10348,-9805,1613,1171,-504,83,111,-11
1228,17,25,30,22,32,37,27,20,3308,-7364,-10359,-9797,1588,1174,-508,54,48,-19
1258,20,21,24,22,28,31,29,18,3297,-7364,-10370,-9789,1564,1168,-503,8,-30,-43
1273,23,21,26,25,49,41,33,19,3273,-7372,-10382,-9778,1569,1156,-515,-24,-109,-63
1288,23,23,31,30,65,61,35,17,3242,-7387,-10393,-9766,1576,1141,-490,-41,-177,-72
1311,25,22,31,32,71,68,34,21,3216,-7402,-10396,-9760,1623,1132,-478,-69,-142,-57
1333,28,24,30,32,72,70,36,21,3195,-7418,-10394,-9756,1629,1129,-448,-74,-138,-38
1348,27,25,30,31,77,70,33,24,3178,-7437,-10392,-9749,1610,1118,-444,-51,-136,-5
1371,24,24,28,28,68,69,32,24,3171,-7456,-10386,-9744,1625,1126,-443,-47,-101,36
1393,24,22,23,23,57,52,29,24,3164,-7474,-10379,-9740,1617,1164,-432,-45,-93,51
1408,21,22,25,21,52,40,28,20,3156,-7487,-10375,-9737,1600,1143,-429,-34,-89,24
1431,20,20,24,24,58,39,24,22,3152,-7495,-10375,-9732,1617,1138,-450,-8,-54,-2
1453,20,22,29,28,55,40,26,20,3154,-7500,-10375,-9727,1655,1135,-455,11,-26,-3
1468,23,30,45,53,64,45,29,21,3171,-7501,-10369,-9728,1695,1148,-423,26,43,38
1491,26,39,62,72,92,66,42,26,3210,-7491,-10357,-9735,1716,1186,-472,41,200,95
1513,27,40,63,78,101,77,50,30,3237,-7478,-10355,-9739,1589,1162,-485,44,177,48
1528,26,40,68,80,99,76,53,30,3267,-7474,-10343,-9744,1594,1140,-474,12,161,112
1551,26,38,68,85,98,78,56,30,3295,-7473,-10328,-9751,1600,1129,-436,-7,143,119
1573,24,32,58,75,100,77,54,29,3320,-7469,-10314,-9761,1591,1142,-407,-15,139,97
1588,20,21,44,65,82,67,47,25,3339,-7474,-10294,-9771,1609,1127,-396,-50,91,119
1611,20,20,40,64,78,58,38,22,3355,-7482,-10274,-9781,1602,1138,-379,-62,65,125
1633,21,20,34,65,75,63,34,22,3372,-7482,-10257,-9793,1609,1106,-366,-48,97,84
1648,20,21,29,60,83,68,29,23,3388,-7475,-10248,-9802,1631,1104,-393,-15,108,28
1671,19,21,27,57,76,65,29,23,3401,-7461,-10245,-9812,1651,1115,-388,11,113,-27
1693,27,24,23,55,76,63,29,25,3409,-7444,-10250,-9816,1664,1127,-414,33,90,-67
1708,27,25,26,48,78,70,33,26,3408,-7432,-10257,-9819,1659,1145,-428,14,49,-68
1731,26,26,24,42,80,71,32,24,3402,-7430,-10258,-9822,1650,1153,-437,-32,7,-37
1753,28,26,26,39,73,64,33,25,3385,-7435,-10258,-9823,1636,1138,-446,-71,-54,-43
1768,28,28,29,42,72,69,34,26,3360,-7445,-10259,-9823,1637,1134,-438,-80,-107,-63
1791,21,27,38,34,68,66,31,23,3326,-7457,-10263,-9821,1621,1136,-434,-90,-156,-80
1813,22,26,42,36,61,60,29,23,3287,-7473,-10267,-9819,1607,1131,-415,-103,-195,-91
1830,22,23,48,37,63,60,32,24,3256,-7484,-10266,-9821,1614,1128,-376,-96,-156,-77
1851,19,22,56,39,67,66,36,23,3229,-7493,-10266,-9823,1620,1138,-398,-86,-128,-73
1873,19,20,56,35,69,62,32,23,3205,-7502,-10264,-9827,1635,1151,-391,-83,-114,-62
1890,17,18,59,34,69,63,32,23,3183,-7510,-10260,-9832,1617,1144,-381,-88,-101,-51
1911,19,20,57,30,64,61,30,20,3167,-7516,-10256,-9836,1616,1120,-383,-72,-78,-44
1933,20,20,52,31,62,56,27,22,3157,-7520,-10253,-9839,1619,1128,-384,-42,-54,-39
1956,19,22,44,36,75,61,23,20,3156,-7521,-10247,-9845,1634,1138,-357,-30,-14,-12
1971,21,23,42,46,70,60,26,20,3160,-7521,-10241,-9850,1644,1171,-387,-19,18,18
1993,22,24,32,48,67,60,30,22,3172,-7517,-10234,-9857,1641,1173,-398,-10,71,26
2016,20,22,27,49,68,59,32,23,3182,-7510,-10231,-9862,1630,1160,-414,2,76,4
2031,19,26,26,51,68,59,32,21,3188,-7504,-10230,-9866,1621,1162,-421,-1,55,-4
2053,21,24,29,48,48,47,30,22,3192,-7503,-10228,-9868,1606,1145,-413,-5,34,7
2076,19,23,29,43,48,45,28,21,3196,-7502,-10225,-9870,1610,1154,-415,-15,28,15
2091,20,23,35,47,58,47,27,18,3197,-7503,-10221,-9873,1612,1156,-400,-22,12,5
2113,20,22,35,47,64,53,26,18,3197,-7503,-10221,-9873,1611,1152,-392,-13,9,-13
2136,20,18,36,44,62,55,25,19,3197,-7498,-10222,-9876,1616,1147,-389,-2,20,-29
2151,19,20,32,42,63,56,25,18,3198,-7493,-10224,-9877,1617,1142,-403,9,21,-34
2173,21,21,31,41,62,56,24,18,3202,-7487,-10225,-9879,1613,1152,-402,11,36,-19
2196,22,23,26,40,56,51,23,22,3210,-7484,-10222,-9882,1631,1142,-396,1,47,9
2211,20,28,30,40,60,54,24,23,3218,-7481,-10221,-9883,1611,1150,-414,12,48,12
2233,23,28,39,46,69,62,29,25,3224,-7479,-10221,-9882,1611,1164,-411,12,32,18
2256,23,28,43,52,78,63,29,25,3230,-7478,-10218,-9884,1617,1166,-396,1,31,24
2271,21,30,46,56,83,72,40,30,3237,-7480,-10215,-9884,1637,1162,-412,-1,29,30
2293,20,27,44,56,84,76,40,28,3242,-7479,-10212,-9886,1611,1142,-381,0,23,14
2316,21,25,50,60,79,73,40,26,3249,-7476,-10212,-9886,1608,1132,-398,14,42,6
2331,19,25,50,59,74,66,37,23,3259,-7472,-10209,-9888,1625,1152,-386,15,50,21
2353,20,23,47,54,62,65,37,26,3268,-7468,-10207,-9891,1607,1158,-388,11,55,21
2376,23,24,46,50,56,55,29,21,3276,-7464,-10204,-9894,1598,1149,-368,7,47,20
2391,23,25,45,58,51,46,26,20,3284,-7459,-10201,-9898,1616,1156,-379,6,52,16
2413,21,26,39,69,55,53,29,23,3293,-7456,-10199,-9900,1613,1137,-382,8,49,20
2436,20,25,37,67,55,56,31,22,3304,-7456,-10196,-9899,1641,1146,-395,21,44,37
2451,21,28,44,78,63,52,30,22,3312,-7454,-10195,-9899,1618,1166,-383,18,36,33
2473,18,26,44,82,60,51,28,21,3324,-7451,-10190,-9903,1649,1158,-366,5,59,32
2496,17,26,46,75,58,50,29,22,3328,-7447,-10187,-9906,1626,1167,-391,-7,44,14
2511,20,22,43,77,71,52,26,22,3329,-7444,-10186,-9910,1617,1155,-380,-9,27,-5
2533,20,24,40,81,72,52,24,23,3334,-7440,-10185,-9912,1616,1130,-387,-3,43,0
2556,17,21,37,70,68,51,23,21,3337,-7437,-10186,-9913,1614,1137,-393,5,30,-8
2571,18,22,38,73,82,50,23,23,3337,-7437,-10186,-9913,1605,1132,-367,11,9,-6
2593,17,22,37,74,83,50,21,22,3337,-7437,-10186,-9913,1628,1139,-389,4,-3,10
2616,16,24,38,59,71,51,27,22,3334,-7441,-10187,-9909,1618,1144,-400,-2,-20,2
2631,16,25,39,53,71,49,27,22,3335,-7441,-10187,-9909,1644,1140,-401,-7,-5,4
2655,21,23,33,59,70,54,30,24,3333,-7445,-10186,-9908,1621,1136,-381,-15,-17,9
2676,20,23,29,48,71,67,32,23,3333,-7445,-10186,-9908,1630,1135,-372,-5,-4,8
2691,22,22,32,46,81,75,35,24,3334,-7445,-10185,-9908,1639,1135,-376,1,4,-7
2713,23,27,33,50,82,71,32,24,3334,-7446,-10185,-9908,1639,1117,-377,10,11,-14
2736,22,25,31,52,81,72,32,24,3340,-7441,-10186,-9909,1646,1155,-375,24,36,-3
2751,21,26,33,52,93,78,32,22,3345,-7437,-10188,-9908,1614,1162,-375,27,25,8
2781,21,27,35,55,92,76,33,23,3348,-7437,-10189,-9906,1626,1173,-369,16,0,22
2796,21,26,38,62,88,70,30,22,3345,-7440,-10189,-9904,1639,1163,-355,8,-35,5
2811,21,24,43,59,86,66,27,21,3346,-7438,-10191,-9903,1646,1142,-363,19,-6,-16
2833,21,25,43,58,91,75,29,20,3348,-7432,-10196,-9903,1624,1138,-362,29,14,-31
2856,21,28,47,56,83,72,28,23,3352,-7426,-10198,-9904,1625,1141,-344,35,23,-16
2871,21,26,46,52,75,65,27,21,3359,-7422,-10200,-9902,1656,1136,-383,33,29,-8
2893,19,29,43,55,78,64,30,23,3366,-7413,-10204,-9902,1658,1148,-389,33,51,-27
2916,17,24,38,55,74,61,30,24,3372,-7401,-10209,-9903,1625,1161,-420,28,78,-30
2938,17,25,43,59,69,55,30,23,3372,-7394,-10212,-9906,1574,1148,-391,4,40,-18
2953,16,24,40,62,68,51,28,27,3374,-7392,-10211,-9908,1616,1139,-375,-6,22,-5
2976,14,25,40,63,68,50,26,27,3374,-7392,-10211,-9908,1639,1156,-398,-9,12,-14
2998,15,25,39,60,65,52,25,28,3375,-7389,-10212,-9909,1634,1145,-384,-1,24,-17
3015,15,27,40,59,66,51,26,26,3377,-7386,-10212,-9911,1628,1145,-383,-3,25,-9
3036,17,28,39,55,68,51,36,27,3377,-7386,-10212,-9911,1617,1147,-370,-6,13,-9
3058,18,24,39,47,61,50,38,21,3376,-7382,-10213,-9912,1632,1155,-379,1,13,-20
3073,20,28,40,54,63,54,39,21,3374,-7376,-10216,-9915,1613,1156,-365,1,14,-35
3096,20,28,46,50,56,54,40,22,3369,-7372,-10218,-9917,1603,1151,-352,-1,-6,-35
3118,22,33,50,48,56,54,42,23,3369,-7372,-10218,-9918,1628,1155,-335,4,2,-9
3133,21,38,47,51,51,46,30,24,3369,-7371,-10218,-9918,1616,1164,-354,8,-11,-6
3156,21,41,51,59,60,50,29,24,3369,-7371,-10217,-9919,1626,1173,-350,15,10,-10
3178,21,43,55,55,66,55,28,25,3372,-7364,-10220,-9920,1620,1158,-358,22,27,-20
3193,22,50,56,59,82,62,34,25,3381,-7352,-10221,-9925,1632,1155,-351,24,75,-24
3216,19,47,52,63,88,62,31,23,3393,-7336,-10222,-9932,1631,1160,-355,36,108,-26
3238,20,46,52,68,94,64,31,21,3404,-7318,-10227,-9936,1608,1148,-369,46,108,-43
3253,19,45,53,68,92,60,29,28,3414,-7301,-10235,-9937,1621,1171,-381,60,95,-43
3276,23,43,49,70,91,54,32,28,3423,-7289,-10239,-9939,1615,1158,-363,42,76,-20
3306,23,35,41,68,85,43,24,27,3429,-7280,-10241,-9941,1594,1163,-385,19,65,-8
3313,23,35,42,65,82,44,26,26,3432,-7276,-10242,-9942,1591,1141,-384,-1,41,-6
3336,22,28,41,72,87,50,29,27,3432,-7274,-10239,-9946,1606,1141,-366,-25,24,-6
3358,23,28,33,69,86,50,29,20,3430,-7274,-10237,-9949,1595,1147,-353,-27,10,-5
3381,19,23,29,64,76,45,23,24,3427,-7276,-10237,-9949,1600,1148,-352,-12,-19,-1
3396,17,23,29,61,68,46,24,24,3418,-7281,-10239,-9946,1600,1174,-341,0,-63,-1
3418,18,22,27,59,61,43,22,24,3404,-7287,-10247,-9938,1599,1177,-371,11,-95,-23
3433,17,23,27,36,42,30,18,24,3378,-7301,-10263,-9920,1585,1162,-404,19,-181,-49
3456,16,21,25,29,37,36,18,22,3338,-7317,-10285,-9899,1585,1165,-420,18,-252,-109
3478,15,22,22,28,37,37,22,16,3290,-7329,-10308,-9883,1604,1170,-390,3,-277,-159
3493,16,22,35,26,43,39,22,17,3242,-7342,-10328,-9868,1611,1160,-406,-27,-272,-160
3516,20,36,45,40,55,50,25,18,3207,-7352,-10332,-9868,1660,1182,-350,-62,-190,-117
3538,20,56,69,65,60,55,25,19,3219,-7347,-10317,-9883,1761,1231,-393,-67,95,15
3553,25,98,144,84,71,53,28,20,3252,-7318,-10297,-9915,1728,1267,-356,-48,293,19
3576,29,109,191,119,156,92,46,28,3300,-7262,-10270,-9968,1704,1317,-405,-97,526,-2
3598,42,129,232,225,273,166,84,53,3367,-7189,-10244,-10026,1721,1287,-256,-8,609,-21
3615,52,135,236,260,319,197,108,69,3487,-7092,-10235,-10062,1784,1218,-378,229,862,18
3636,63,141,261,274,394,240,127,81,3631,-6979,-10230,-10095,1683,1115,-352,329,997,25
3658,68,146,238,333,410,251,136,86,3768,-6846,-10241,-10126,1615,1062,-239,421,992,-101
3673,76,140,217,405,500,262,143,92,3890,-6734,-10265,-10130,1532,1001,-306,468,825,-75
3696,78,144,199,451,612,245,134,88,3999,-6641,-10291,-10122,1514,1018,-319,455,694,-28
3718,98,238,226,464,635,335,172,107,4089,-6556,-10310,-10122,1486,1130,-296,362,619,0
3733,98,264,300,529,781,342,181,110,4174,-6469,-10306,-10148,1613,1236,-275,188,698,-3
3756,105,273,320,504,902,350,185,114,4235,-6364,-10285,-10210,1737,1402,-207,-6,746,-131
3778,105,291,332,537,877,347,181,112,4252,-6228,-10285,-10286,1783,1404,-166,-24,698,-494
3793,111,314,339,503,819,372,197,120,4247,-6073,-10292,-10374,1746,1389,-121,-59,695,-672
3816,94,299,436,539,833,293,159,96,4245,-5904,-10296,-10468,1690,1354,3,-44,732,-733
3838,104,327,408,501,684,349,174,105,4249,-5729,-10316,-10543,1569,1314,-21,91,738,-733
3860,106,339,458,499,657,395,189,113,4252,-5561,-10342,-10606,1499,1279,-38,129,697,-712
3876,110,348,469,427,688,459,217,123,4260,-5392,-10346,-10686,1454,1319,33,11,759,-664
3898,109,323,477,475,674,455,210,120,4263,-5250,-10348,-10754,1400,1208,0,-18,647,-606
3920,110,278,514,414,802,452,207,121,4280,-5115,-10362,-10799,1348,1146,25,127,608,-536
3936,104,213,506,457,936,393,179,104,4316,-4959,-10382,-10837,1401,1294,47,236,732,-511
3958,105,162,457,503,953,353,164,96,4343,-4814,-10407,-10868,1423,1349,-15,225,669,-499
3981,97,130,471,527,907,272,124,83,4374,-4683,-10413,-10907,1415,1370,-12,99,677,-418
3996,86,126,486,504,927,271,121,73,4390,-4580,-10414,-10944,1326,1449,-88,-9,560,-304
4018,98,133,357,532,821,304,147,93,4387,-4507,-10416,-10973,1239,1451,-62,-50,355,-230
4041,91,135,331,466,669,302,149,95,4353,-4467,-10415,-11004,1186,1413,-100,-177,143,-229
4056,85,178,342,475,552,289,141,93,4321,-4450,-10398,-11039,1274,1380,15,-243,59,-176
4078,94,207,391,481,602,329,163,103,4294,-4430,-10388,-11068,1360,1393,89,-155,41,-199
4101,101,217,416,438,533,332,166,112,4269,-4394,-10386,-11093,1387,1437,111,-80,85,-253
4115,84,222,442,417,531,298,141,94,4232,-4356,-10396,-11113,1323,1462,75,-44,36,-296
4138,88,238,549,453,656,336,159,99,4186,-4321,-10415,-11127,1255,1438,90,-3,-35,-310
4161,83,216,558,450,645,327,153,92,4149,-4278,-10431,-11142,1296,1509,94,9,33,-299
4175,71,179,499,426,625,272,128,76,4116,-4243,-10436,-11163,1301,1511,106,-57,41,-253
4198,70,172,499,445,636,258,126,67,4079,-4228,-10438,-11180,1265,1449,108,-90,-55,-205
4229,79,192,493,517,606,266,132,72,4047,-4213,-10433,-11202,1221,1404,176,-92,-46,-182
4236,86,207,426,532,506,230,111,65,4033,-4196,-10421,-11225,1240,1422,169,-101,41,-124
4258,109,206,429,570,585,332,162,101,4028,-4176,-10408,-11246,1269,1465,195,-79,79,-84
4280,120,208,466,558,604,357,173,112,4035,-4156,-10383,-11273,1277,1493,243,-110,133,-33
4296,122,223,413,532,597,333,160,107,4040,-4113,-10370,-11300,1297,1580,173,-70,232,-112
4318,122,234,561,464,616,357,171,110,4031,-4066,-10374,-11316,1166,1507,167,20,152,-168
4340,153,238,700,515,648,363,177,118,4037,-4021,-10369,-11335,1216,1481,117,-39,237,-132
4355,149,242,764,440,574,292,143,101,4047,-3987,-10360,-11351,1205,1482,133,-40,209,-67
4378,143,243,754,422,557,280,139,91,4047,-3964,-10360,-11360,1182,1457,100,-24,121,-63
4400,144,251,882,438,573,285,140,94,4037,-3962,-10367,-11357,1121,1437,111,5,-31,-5
4415,141,224,793,428,579,255,128,89,4035,-3968,-10375,-11348,1172,1480,125,39,-50,52
4438,94,230,652,298,527,222,112,71,4042,-3967,-10382,-11340,1233,1510,141,55,11,47
4460,74,225,584,310,512,207,103,56,4040,-3965,-10390,-11334,1225,1503,140,47,-14,8
4475,70,223,625,377,478,190,89,60,4030,-3972,-10404,-11323,1209,1476,114,58,-87,5
4498,51,200,532,382,470,186,90,57,4028,-3975,-10415,-11312,1241,1535,169,83,-61,32
4520,47,197,558,375,421,173,79,57,4032,-3976,-10416,-11310,1296,1547,163,19,2,31
4535,65,160,559,381,366,188,89,67,4034,-3977,-10412,-11312,1263,1490,140,-24,12,16
4558,92,171,589,342,399,208,102,75,4032,-3984,-10413,-11309,1228,1455,115,-9,-30,28
4581,93,172,548,353,428,202,102,74,4026,-3994,-10421,-11300,1225,1491,95,18,-69,36
4597,104,168,475,350,466,205,103,78,4020,-4002,-10431,-11290,1238,1512,108,42,-71,29
4618,104,181,490,346,451,195,101,75,4014,-4013,-10439,-11282,1278,1536,152,44,-93,31
4641,93,171,492,345,456,186,93,68,4004,-4023,-10445,-11276,1281,1520,147,21,-98,11
4656,68,152,473,350,387,147,72,58,3989,-4035,-10451,-11271,1231,1470,136,9,-119,-6
4678,66,147,512,263,339,137,65,89,3971,-4054,-10461,-11261,1182,1472,111,16,-167,31
4700,54,147,497,233,233,122,57,101,3950,-4080,-10467,-11254,1182,1488,115,-17,-194,48
4716,58,118,455,247,199,113,55,101,3936,-4110,-10465,-11249,1222,1469,111,-52,-174,82
4738,58,112,462,234,162,94,49,102,3933,-4139,-10460,-11245,1247,1471,174,-21,-145,117
4761,57,143,435,210,167,90,47,100,3934,-4164,-10457,-11238,1304,1513,155,-4,-107,111
4783,54,137,361,199,169,79,43,69,3932,-4183,-10458,-11230,1308,1529,146,20,-111,77
4798,50,130,334,188,161,65,37,38,3908,-4205,-10471,-11219,1247,1520,82,19,-196,19
4820,52,130,306,147,151,60,37,42,3860,-4236,-10494,-11202,1157,1456,44,19,-336,-38
4843,52,128,284,127,124,53,34,46,3796,-4283,-10521,-11181,1114,1392,10,-6,-454,-50
4858,47,94,236,113,107,41,26,43,3735,-4346,-10537,-11162,1160,1390,8,-65,-491,10
4880,50,103,229,91,71,39,26,44,3690,-4424,-10543,-11141,1166,1339,-22,-95,-474,128
4903,52,103,298,88,69,39,25,49,3664,-4522,-10549,-11104,1108,1300,-54,-41,-501,309
4918,48,104,293,79,69,41,25,45,3658,-4638,-10561,-11047,1110,1269,-33,79,-549,457
4940,48,98,267,72,73,38,26,45,3648,-4776,-10592,-10961,1154,1367,2,241,-735,566
4963,46,89,266,72,74,37,25,46,3624,-4956,-10623,-10859,1345,1446,-48,220,-966,650
4978,44,84,258,78,77,38,26,95,3598,-5158,-10640,-10756,1503,1417,-182,105,-1004,683
5001,39,98,169,65,75,40,26,122,3581,-5376,-10641,-10653,1667,1420,-156,66,-1039,769
5023,37,109,140,68,69,38,24,133,3573,-5579,-10613,-10580,1657,1445,-292,-155,-818,793
5038,36,114,136,69,61,35,22,133,3564,-5773,-10570,-10522,1633,1387,-165,-200,-796,778
5061,36,119,107,70,67,45,25,133,3534,-5956,-10530,-10469,1582,1413,-181,-231,-831,694
5083,35,122,106,61,62,45,25,105,3493,-6126,-10481,-10435,1586,1360,-167,-323,-780,593
5098,32,112,95,48,57,41,25,67,3450,-6271,-10446,-10398,1598,1320,-216,-256,-714,458
5121,45,100,97,38,58,39,24,38,3413,-6402,-10422,-10354,1654,1328,-213,-156,-676,414
5143,55,95,93,35,52,40,25,34,3371,-6520,-10403,-10313,1628,1266,-259,-157,-637,321
5158,55,88,87,29,37,32,23,33,3315,-6644,-10386,-10270,1547,1205,-305,-189,-695,303
5181,55,91,64,29,36,40,24,30,3254,-6778,-10365,-10223,1499,1206,-263,-195,-780,354
5203,54,83,53,25,36,46,29,32,3201,-6921,-10339,-10170,1563,1216,-304,-189,-782,423
5218,41,75,39,26,36,46,29,31,3140,-7074,-10293,-10129,1615,1219,-346,-332,-791,461
5241,28,74,39,25,36,46,28,29,3067,-7226,-10240,-10099,1644,1244,-335,-409,-809,423
5263,27,71,38,24,36,43,29,24,2987,-7364,-10189,-10075,1666,1241,-332,-423,-782,342
5278,22,47,32,25,39,40,27,22,2908,-7483,-10145,-10054,1688,1231,-337,-387,-720,248
5301,23,46,33,26,36,34,23,24,2841,-7582,-10104,-10041,1687,1179,-332,-351,-600,181
5323,22,42,30,26,38,36,23,23,2782,-7665,-10074,-10024,1657,1170,-346,-264,-534,143
5338,18,37,27,29,42,37,23,22,2732,-7737,-10050,-10007,1646,1179,-350,-208,-468,126
5361,21,36,28,37,42,38,24,23,2692,-7797,-10026,-9995,1691,1201,-377,-193,-378,113
5383,22,34,25,35,37,33,24,24,2658,-7846,-10006,-9985,1657,1178,-386,-163,-314,82
5398,22,31,25,38,41,33,23,19,2625,-7886,-9994,-9975,1602,1158,-400,-128,-273,46
5421,22,29,24,38,46,40,24,19,2592,-7918,-9987,-9965,1580,1176,-399,-102,-257,15
5443,22,26,23,36,48,47,28,23,2564,-7946,-9980,-9957,1630,1201,-416,-93,-221,15
5458,19,24,22,30,54,52,26,21,2546,-7968,-9967,-9957,1684,1198,-414,-104,-142,18
5481,15,22,22,33,69,63,30,20,2540,-7984,-9952,-9961,1669,1165,-391,-83,-80,33
5503,15,19,20,30,70,64,33,27,2543,-7993,-9940,-9965,1617,1157,-394,-50,-16,44
5518,17,24,19,29,72,65,35,30,2554,-7994,-9937,-9964,1587,1129,-429,19,30,27
5541,17,23,19,31,76,67,39,34,2570,-7991,-9940,-9960,1615,1145,-453,53,59,12
5563,18,29,21,29,76,65,40,35,2577,-7990,-9941,-9957,1626,1195,-477,19,31,11
5578,19,29,21,26,74,65,40,35,2566,-7997,-9938,-9958,1604,1192,-463,-59,-42,-3
5601,18,33,32,32,73,72,41,30,2549,-8010,-9931,-9959,1595,1147,-458,-98,-85,-17
5623,17,29,33,34,69,70,39,28,2540,-8020,-9924,-9961,1616,1160,-441,-71,-54,0
5638,16,31,35,32,63,66,34,22,2540,-8020,-9923,-9961,1632,1189,-440,-15,-6,4
5661,19,31,40,40,64,64,32,24,2553,-8011,-9925,-9963,1661,1200,-429,45,69,-8
5683,22,33,40,41,52,55,31,25,2575,-7992,-9933,-9965,1623,1152,-421,91,130,-42
5698,23,34,38,37,53,47,29,23,2597,-7968,-9945,-9966,1570,1090,-445,104,159,-74
5721,25,52,43,37,55,44,32,25,2622,-7947,-9959,-9962,1574,1072,-468,117,152,-64
5743,27,56,45,40,62,50,32,25,2640,-7930,-9971,-9960,1580,1125,-469,92,123,-49
5766,24,57,40,35,62,55,31,25,2648,-7924,-9974,-9959,1586,1172,-472,25,65,-1
5781,21,60,45,33,68,61,31,26,2652,-7927,-9971,-9958,1607,1171,-449,-8,12,16
5803,24,60,40,34,72,64,32,28,2655,-7927,-9973,-9956,1623,1164,-419,18,-3,-7
0,Repeat 6,,,,,,,,,,,,,,,,,
15,21,43,36,36,68,73,36,26,2676,-7907,-9994,-9944,1642,1133,-447,97,62,-63
37,21,43,43,35,70,69,35,24,2687,-7895,-10007,-9939,1618,1148,-466,89,69,-58
60,21,37,39,36,65,70,35,21,2695,-7887,-10017,-9933,1577,1147,-473,63,46,-32
75,17,47,41,34,62,68,35,18,2695,-7888,-10021,-9928,1565,1148,-463,17,-4,-12
97,17,50,47,37,64,65,30,21,2693,-7893,-10022,-9923,1595,1152,-442,-1,-30,2
120,21,55,57,30,65,64,30,20,2694,-7894,-10021,-9923,1632,1156,-453,-5,1,4
135,22,59,51,31,58,64,30,22,2699,-7893,-10021,-9923,1628,1148,-440,4,17,-9
157,22,62,51,32,57,58,30,23,2706,-7887,-10024,-9922,1618,1153,-455,29,45,-26
180,25,54,50,30,56,57,27,25,2711,-7883,-10027,-9921,1611,1168,-440,27,29,-16
195,25,59,51,29,53,53,26,22,2715,-7881,-10029,-9920,1599,1155,-445,15,24,-8
217,26,54,40,35,47,49,23,22,2716,-7881,-10029,-9920,1603,1167,-435,4,8,-4
240,28,50,43,33,46,50,25,19,2720,-7879,-10027,-9922,1617,1167,-441,-7,31,0
255,28,46,50,39,70,69,32,24,2723,-7876,-10027,-9924,1616,1167,-428,2,23,-15
277,25,48,48,48,77,72,34,22,2728,-7871,-10028,-9924,1615,1170,-431,20,33,-14
300,23,41,45,49,73,70,33,24,2735,-7865,-10029,-9927,1630,1193,-437,15,50,-10
315,19,39,39,46,76,70,31,24,2739,-7859,-10032,-9927,1607,1172,-442,19,34,-20
345,20,40,42,46,79,71,31,24,2740,-7853,-10036,-9927,1599,1168,-447,12,30,-35
360,26,52,48,41,63,59,23,20,2738,-7847,-10042,-9927,1594,1158,-449,11,13,-56
375,27,51,49,34,58,56,26,19,2736,-7842,-10048,-9925,1614,1155,-460,15,12,-55
397,26,48,46,35,69,70,39,20,2733,-7840,-10053,-9923,1593,1154,-452,3,-2,-45
420,27,53,49,51,74,72,40,24,2727,-7842,-10055,-9921,1595,1154,-453,-15,-26,-33
435,25,66,48,51,73,74,40,25,2723,-7844,-10052,-9923,1618,1174,-431,-29,-15,-11
457,20,58,34,50,70,69,40,27,2724,-7843,-10050,-9927,1607,1168,-420,-20,15,-11
480,20,58,40,50,70,69,38,26,2723,-7839,-10050,-9930,1588,1178,-428,-11,18,-23
495,21,62,42,52,67,62,27,25,2725,-7834,-10051,-9932,1577,1154,-412,7,26,-25
517,19,60,40,43,65,59,30,24,2732,-7829,-10053,-9932,1605,1154,-422,29,31,-20
540,20,51,46,52,73,68,32,24,2740,-7825,-10056,-9930,1606,1148,-425,40,32,-11
555,19,53,46,56,82,78,36,24,2753,-7820,-10058,-9928,1612,1157,-446,38,61,2
577,18,55,46,58,81,76,36,24,2761,-7815,-10059,-9929,1615,1188,-452,18,52,7
600,20,61,45,57,74,69,34,24,2766,-7813,-10058,-9930,1599,1176,-449,-1,35,4
615,19,59,48,53,67,66,34,21,2768,-7814,-10056,-9931,1599,1184,-447,-16,21,14
637,19,54,40,49,71,61,35,21,2766,-7817,-10054,-9931,1600,1173,-447,-21,-6,1
660,23,52,41,51,75,64,40,18,2766,-7817,-10054,-9931,1601,1167,-423,-6,2,-12
675,24,47,39,49,73,64,39,19,2767,-7814,-10055,-9932,1603,1177,-417,8,13,-18
697,21,36,47,43,73,65,42,20,2769,-7809,-10057,-9934,1596,1162,-423,4,27,-28
720,27,58,51,53,74,67,42,22,2770,-7802,-10059,-9937,1579,1162,-412,4,30,-35
735,25,59,50,56,62,61,40,21,2775,-7796,-10060,-9939,1591,1168,-422,12,43,-15
757,23,61,50,53,53,48,33,24,2778,-7790,-10061,-9942,1618,1189,-443,2,43,-18
780,22,62,47,54,68,54,33,24,2776,-7785,-10063,-9944,1568,1167,-434,-5,22,-34
796,23,64,40,59,70,57,31,22,2779,-7780,-10065,-9946,1583,1155,-425,1,34,-27
817,20,48,34,52,76,66,31,21,2778,-7776,-10069,-9945,1575,1162,-446,8,19,-30
840,21,46,37,50,81,70,35,25,2779,-7773,-10070,-9946,1605,1178,-431,1,18,-18
862,19,49,38,51,77,66,32,23,2778,-7774,-10068,-9947,1598,1185,-422,-19,3,-1
877,21,53,40,49,66,63,33,24,2779,-7774,-10068,-9947,1604,1173,-431,-14,3,-2
900,21,54,41,51,88,76,38,29,2779,-7775,-10068,-9947,1588,1165,-445,-3,2,-15
922,23,50,52,61,103,78,44,32,2779,-7775,-10068,-9946,1579,1145,-409,8,15,-12
937,23,53,55,58,102,72,40,31,2783,-7774,-10068,-9946,1587,1164,-428,9,19,5
960,24,47,57,59,103,75,41,31,2783,-7774,-10068,-9946,1577,1176,-406,10,14,14
982,24,48,56,57,103,74,40,28,2788,-7772,-10067,-9946,1597,1189,-409,11,20,8
997,24,46,54,60,99,63,39,25,2788,-7772,-10067,-9947,1598,1182,-401,15,12,-4
1020,22,64,46,46,77,49,32,21,2792,-7767,-10068,-9949,1604,1188,-399,17,30,-10
1042,22,61,39,46,72,47,30,18,2799,-7760,-10070,-9950,1603,1189,-389,34,35,-14
1057,21,63,37,47,68,43,28,18,2807,-7750,-10074,-9952,1605,1194,-397,48,53,-16
1080,23,62,36,50,68,40,26,20,2816,-7738,-10079,-9953,1604,1204,-367,64,46,-22
1102,23,61,40,53,48,28,19,19,2824,-7727,-10086,-9953,1616,1222,-378,70,43,-20
1117,22,45,38,62,55,27,18,18,2833,-7714,-10093,-9953,1640,1229,-368,73,44,-31
1140,24,47,50,89,107,44,33,25,2845,-7697,-10101,-9955,1668,1235,-348,97,61,-46
1162,26,46,53,98,109,44,33,26,2872,-7668,-10109,-9962,1704,1252,-352,123,168,-46
1177,22,41,52,98,113,47,35,25,2901,-7633,-10120,-9969,1679,1252,-385,136,211,-54
1200,24,44,50,92,121,53,40,27,2934,-7596,-10131,-9975,1652,1196,-399,137,236,-70
1222,26,52,51,103,130,59,43,27,2965,-7558,-10144,-9982,1591,1172,-421,128,257,-75
1237,23,53,42,81,98,53,34,22,2999,-7522,-10155,-9988,1528,1138,-431,122,272,-43
1260,21,53,40,72,177,56,37,21,3036,-7492,-10162,-9993,1519,1142,-429,110,265,3
1283,21,54,40,81,204,56,36,22,3072,-7459,-10170,-9997,1514,1173,-414,124,267,2
1297,19,52,40,85,202,56,32,25,3104,-7424,-10181,-10003,1524,1180,-395,125,250,-23
1320,15,39,40,90,207,65,34,27,3129,-7393,-10189,-10011,1570,1198,-404,85,222,-44
1351,18,45,45,99,217,67,35,26,3149,-7363,-10194,-10021,1579,1181,-398,48,211,-58
1357,18,44,42,98,159,64,35,25,3166,-7336,-10201,-10028,1609,1173,-424,53,191,-71
1380,18,46,46,90,122,63,34,24,3178,-7310,-10210,-10034,1587,1189,-423,43,164,-82
1403,19,45,48,91,117,61,35,21,3176,-7291,-10219,-10040,1561,1187,-424,3,98,-91
1417,21,46,46,64,94,42,27,19,3161,-7281,-10225,-10044,1554,1188,-421,-46,17,-102
1440,19,37,44,47,58,32,25,20,3129,-7281,-10232,-10048,1569,1199,-439,-95,-70,-132
1462,20,34,47,44,55,34,24,22,3081,-7286,-10245,-10046,1575,1214,-448,-108,-167,-171
1478,21,30,47,44,47,34,25,22,3015,-7297,-10263,-10039,1545,1219,-436,-112,-273,-218
1500,21,33,48,28,36,28,23,19,2940,-7312,-10282,-10032,1526,1198,-413,-126,-333,-250
1523,20,40,54,31,40,31,28,20,2872,-7326,-10292,-10031,1550,1198,-382,-148,-298,-223
1538,20,40,49,31,37,32,27,19,2828,-7335,-10288,-10041,1590,1198,-341,-160,-182,-153
1560,21,42,48,29,35,32,26,19,2804,-7337,-10280,-10054,1621,1244,-359,-132,-68,-92
1583,22,43,54,30,38,36,25,21,2789,-7331,-10272,-10071,1600,1268,-342,-105,0,-83
1598,20,44,57,31,38,37,27,22,2783,-7317,-10267,-10088,1564,1252,-347,-70,55,-83
1628,20,51,54,29,36,37,21,19,2781,-7303,-10263,-10103,1535,1214,-354,-57,82,-74
1643,19,57,54,27,36,36,21,22,2784,-7287,-10260,-10116,1530,1202,-348,-37,92,-73
1658,17,59,56,27,39,39,24,21,2787,-7270,-10258,-10130,1531,1225,-345,-29,102,-70
1680,14,58,45,24,39,34,22,20,2789,-7256,-10255,-10142,1535,1242,-359,-38,88,-53
1703,17,54,39,24,39,32,19,19,2793,-7245,-10247,-10157,1546,1253,-340,-56,91,-26
1718,17,41,40,24,39,33,21,20,2797,-7235,-10238,-10173,1538,1265,-332,-64,91,-8
1740,18,49,43,29,38,32,21,19,2804,-7227,-10227,-10188,1541,1247,-334,-65,100,0
1763,20,53,45,30,35,27,18,20,2812,-7212,-10219,-10204,1537,1279,-332,-48,122,-12
1778,20,53,48,38,32,36,21,18,2816,-7197,-10215,-10217,1528,1292,-331,-32,108,-29
1800,18,55,59,44,51,47,27,23,2827,-7185,-10207,-10231,1544,1277,-315,-35,112,8
1823,21,58,58,47,59,48,27,23,2839,-7176,-10197,-10243,1560,1292,-310,-32,109,24
1845,21,52,56,45,61,49,27,21,2852,-7162,-10190,-10256,1540,1278,-286,-16,119,8
1860,19,49,55,52,62,50,28,21,2864,-7146,-10184,-10270,1528,1276,-286,-15,128,0
1883,19,52,61,56,65,47,27,25,2873,-7131,-10179,-10283,1513,1264,-268,-13,106,-16
1905,20,53,56,55,52,37,22,21,2887,-7113,-10174,-10297,1529,1265,-250,3,133,-7
1920,18,50,53,63,62,34,27,22,2907,-7094,-10170,-10308,1533,1264,-253,25,148,3
1943,17,40,53,68,70,32,27,23,2927,-7072,-10169,-10319,1522,1273,-252,42,161,-2
1965,20,40,54,70,78,33,27,23,2949,-7047,-10169,-10330,1512,1269,-250,51,181,-9
1988,20,35,49,64,78,29,27,20,2975,-7020,-10170,-10339,1506,1267,-271,65,205,2
2003,20,35,54,61,86,33,26,19,3004,-6997,-10168,-10348,1531,1265,-246,65,193,25
2025,21,36,56,61,82,35,23,21,3030,-6978,-10168,-10354,1544,1280,-255,65,166,25
2040,25,41,57,56,91,43,27,22,3052,-6956,-10168,-10361,1540,1290,-253,56,168,8
2063,23,39,54,55,85,41,28,21,3071,-6937,-10170,-10367,1549,1303,-283,45,156,6
2085,24,38,51,58,86,41,30,24,3082,-6921,-10173,-10372,1544,1285,-288,30,111,-20
2100,23,33,41,65,82,46,40,25,3085,-6909,-10177,-10375,1527,1277,-283,13,71,-29
2122,24,37,53,66,78,45,41,26,3086,-6900,-10179,-10379,1532,1267,-262,2,42,-30
2145,21,32,54,69,63,42,40,25,3081,-6895,-10182,-10380,1509,1262,-270,-4,11,-34
2160,21,30,52,64,63,43,41,25,3080,-6891,-10183,-10382,1528,1252,-255,-4,14,-26
2182,21,30,53,62,58,43,39,26,3078,-6886,-10185,-10384,1553,1271,-263,-5,15,-34
2205,21,30,54,53,53,33,28,24,3071,-6883,-10190,-10384,1544,1290,-298,-6,-2,-42
2220,21,22,41,41,48,34,26,20,3056,-6886,-10196,-10380,1494,1273,-285,-16,-60,-35
2243,21,23,37,36,43,30,26,20,3035,-6897,-10203,-10372,1462,1259,-267,-12,-133,-27
2265,20,24,38,32,38,25,24,22,3013,-6910,-10210,-10363,1485,1245,-249,-5,-155,-29
2287,20,24,39,29,35,25,23,19,2996,-6920,-10214,-10357,1524,1253,-241,-4,-127,-38
2303,19,26,38,32,40,26,23,21,2985,-6927,-10220,-10350,1537,1275,-254,18,-97,-24
2325,19,26,34,27,37,24,24,21,2979,-6933,-10225,-10342,1540,1263,-235,38,-82,-11
2340,18,23,34,25,33,22,18,21,2977,-6936,-10234,-10332,1538,1295,-266,60,-58,-2
2363,19,26,36,26,33,23,18,20,2973,-6937,-10244,-10323,1529,1303,-268,70,-55,-15
2385,19,27,38,28,34,25,20,20,2970,-6935,-10255,-10314,1549,1285,-285,59,-39,-34
2400,19,33,50,28,23,26,20,21,2964,-6932,-10264,-10308,1535,1285,-293,43,-32,-48
2423,19,35,60,27,23,29,21,22,2961,-6928,-10272,-10304,1531,1270,-296,34,-15,-47
2445,18,38,68,30,34,32,22,21,2963,-6926,-10277,-10301,1527,1271,-302,32,9,-11
2460,18,38,70,30,36,32,23,22,2972,-6925,-10277,-10299,1524,1261,-282,31,25,24
2482,19,46,72,30,36,30,23,21,2987,-6922,-10276,-10297,1543,1284,-298,39,64,46
2505,18,44,63,27,37,28,24,18,3004,-6916,-10277,-10295,1510,1271,-314,45,86,41
2520,17,45,55,30,38,25,23,20,3020,-6907,-10276,-10297,1497,1265,-303,30,101,34
2542,18,43,52,31,34,23,25,21,3035,-6899,-10274,-10300,1505,1253,-295,23,101,27
2565,18,46,51,36,34,24,25,21,3052,-6892,-10273,-10301,1517,1255,-296,31,90,36
2580,18,38,44,36,35,23,23,21,3069,-6888,-10272,-10299,1548,1267,-304,41,79,47
2602,19,35,46,36,34,23,23,21,3087,-6884,-10272,-10297,1561,1280,-310,42,86,48
2625,19,32,49,37,39,26,21,20,3103,-6879,-10271,-10296,1570,1278,-313,36,81,37
2640,18,31,49,37,39,26,20,18,3114,-6872,-10273,-10296,1564,1286,-316,25,74,12
2662,18,31,47,33,38,25,20,18,3119,-6865,-10274,-10298,1539,1275,-324,3,63,-8
2685,19,32,47,31,37,28,22,19,3119,-6862,-10274,-10300,1539,1249,-318,-22,32,-23
2700,18,32,46,31,37,29,22,18,3116,-6865,-10273,-10300,1552,1242,-322,-33,1,-12
2722,18,31,44,33,34,28,24,20,3111,-6872,-10271,-10299,1549,1253,-326,-41,-26,8
2745,18,30,45,37,38,32,26,20,3107,-6883,-10266,-10298,1553,1259,-293,-39,-45,32
2767,19,28,50,36,38,32,25,22,3103,-6894,-10259,-10299,1547,1278,-282,-47,-39,41
2782,20,26,57,40,44,30,24,22,3097,-6902,-10251,-10303,1545,1281,-261,-58,-41,30
2805,21,27,59,41,47,32,27,21,3093,-6906,-10243,-10309,1550,1279,-253,-54,-16,15
2828,20,28,62,40,47,31,24,20,3091,-6905,-10237,-10317,1574,1282,-250,-45,8,-10
2842,23,30,61,35,46,30,27,21,3088,-6899,-10235,-10324,1557,1273,-266,-31,26,-35
2865,23,29,57,37,46,28,26,18,3089,-6889,-10233,-10332,1541,1251,-279,-24,63,-42
2887,24,30,50,34,39,28,26,17,3092,-6880,-10232,-10338,1520,1240,-278,-16,59,-29
2902,23,29,48,31,35,24,23,18,3095,-6875,-10230,-10342,1532,1234,-271,-19,45,-17
2925,24,28,40,28,32,22,23,20,3096,-6873,-10227,-10346,1552,1247,-285,-29,30,-13
2947,21,25,29,23,25,17,17,19,3092,-6872,-10223,-10352,1554,1274,-304,-55,27,-19
2962,19,23,25,20,24,18,17,21,3087,-6870,-10217,-10361,1563,1272,-310,-79,36,-26
2985,18,23,29,23,24,19,15,19,3084,-6867,-10208,-10372,1550,1258,-290,-89,44,-21
3007,19,20,33,31,31,27,23,22,3081,-6863,-10199,-10385,1558,1262,-307,-93,67,-27
3022,21,20,35,31,31,30,29,19,3083,-6858,-10187,-10399,1598,1257,-320,-112,94,-24
3045,21,22,35,33,29,31,30,18,3083,-6854,-10173,-10415,1601,1254,-338,-136,99,-26
3067,20,23,40,33,31,33,30,19,3081,-6857,-10157,-10430,1604,1230,-356,-162,82,-14
3082,19,24,44,32,33,33,32,20,3075,-6866,-10136,-10446,1617,1219,-368,-200,56,-6
3105,17,25,43,26,29,26,27,18,3065,-6882,-10113,-10461,1605,1205,-352,-220,14,13
3127,18,25,46,27,28,23,23,19,3050,-6909,-10085,-10474,1564,1186,-315,-245,-54,46
3142,17,23,52,27,27,21,21,19,3028,-6945,-10055,-10486,1551,1150,-297,-273,-116,55
3165,19,22,51,28,26,19,21,18,3003,-6986,-10019,-10501,1567,1130,-259,-300,-146,57
3187,19,19,46,27,26,21,20,18,2979,-7027,-9980,-10517,1604,1129,-226,-303,-153,56
3202,19,20,47,26,22,21,19,18,2957,-7063,-9945,-10532,1617,1167,-226,-275,-130,56
3225,14,18,42,26,22,21,19,19,2939,-7094,-9914,-10545,1608,1197,-242,-245,-106,59
3247,15,18,37,24,23,24,19,21,2919,-7124,-9886,-10557,1583,1232,-267,-237,-98,67
3262,15,19,32,22,21,24,19,20,2891,-7151,-9859,-10571,1534,1265,-252,-253,-112,60
3285,16,21,33,22,21,22,20,19,2856,-7176,-9831,-10591,1527,1283,-245,-291,-118,31
3307,18,21,30,22,24,23,19,18,2811,-7196,-9801,-10617,1534,1300,-229,-335,-117,-23
3322,19,22,32,22,28,27,19,17,2760,-7209,-9770,-10650,1537,1306,-247,-373,-86,-68
3345,19,21,29,21,28,29,20,15,2708,-7221,-9734,-10689,1497,1303,-232,-411,-65,-67
